# link: https://git.ligo.org/extreme-matter/eos-models-in-lal-and-bilby/eos_tables/-/blob/main/Modified_tables/eos_Crust_BsK24_nbmin_1e-11_core_XMLSLZ_DDME2_modified.d
# SHA: 2e3690ed9867cb3bc16a62a46657112b7a8a42bd
#
# Model Crust_BsK24_nbmin_1e-11_core_XMLSLZ_DDME2
# Model computed at temperature 0.0  MeV
#
#1262	number of points
#
#  n_B [1/fm^3]   eps[g/cm^3]   P[dyn/cm^2] mu_B [MeV] mu_e [MeV] log-enthalpy H [dimensionless] Y_e+Y_mu[dimensionless] cs2[speed of sound squared]
#
0	1.0014840788221535e-11	1.6586122468902155e+04	1.6736726261730990e+19	9.3041428045287444e+02	9.4999999999999996e-01		1.0000000000000000e-10	4.6428571428571430e-01	2.2004258367309753e-06
1	1.0116741046151249e-11	1.6754885219094031e+04	1.7070478921679704e+19	9.3041430363964787e+02	9.4999999999999996e-01		2.2376411973991642e-08	4.6428571428571430e-01	2.2103222696358507e-06
2	1.0219678131695659e-11	1.6925365121646744e+04	1.7410675583324051e+19	9.3041432702216605e+02	9.4999999999999996e-01		4.4854220063393471e-08	4.6428571428571430e-01	2.2302923318231812e-06
3	1.0323662594500024e-11	1.7097579648533796e+04	1.7757436630067384e+19	9.3041435060185529e+02	9.4999999999999996e-01		6.7534981085832746e-08	4.6428571428571430e-01	2.2504166505605094e-06
4	1.0428705091551476e-11	1.7271546449506117e+04	1.8110884620001292e+19	9.3041437438015078e+02	9.4999999999999996e-01		9.0420261562006684e-08	4.6428571428571430e-01	2.2706961864015271e-06
5	1.0534816388271196e-11	1.7447283353900941e+04	1.8471144323878027e+19	9.3041439835849553e+02	9.4999999999999996e-01		1.1351163775844164e-07	4.6428571428571430e-01	2.2911319041063463e-06
6	1.0642007359617744e-11	1.7624808372469153e+04	1.8838342763717005e+19	9.3041442253834123e+02	9.4999999999999996e-01		1.3681069572990155e-07	4.6428571428571430e-01	2.3117247726525710e-06
7	1.0750288991201594e-11	1.7804139699221141e+04	1.9212609252070162e+19	9.3041444692114862e+02	9.4999999999999996e-01		1.6031903136237594e-07	4.6428571428571430e-01	2.3324757652459159e-06
8	1.0859672380411029e-11	1.7985295713291569e+04	1.9594075431942263e+19	9.3041447150838633e+02	9.4999999999999996e-01		1.8403825041570652e-07	4.6428571428571430e-01	2.3533858593226118e-06
9	1.0970168737549332e-11	1.8168294980822746e+04	1.9982875317388374e+19	9.3041449630153204e+02	9.4999999999999996e-01		2.0796996856659282e-07	4.6428571428571430e-01	2.3744560365566701e-06
10	1.1081789386983918e-11	1.8353156256867853e+04	2.0379145334790619e+19	9.3041452130207233e+02	9.4999999999999996e-01		2.3211581145140701e-07	4.6428571428571430e-01	2.3956872828694302e-06
11	1.1194545768306766e-11	1.8539898487312854e+04	2.0783024364834435e+19	9.3041454651150184e+02	9.4999999999999996e-01		2.5647741470939525e-07	4.6428571428571430e-01	2.4170805884334289e-06
12	1.1308449437506879e-11	1.8728540810818296e+04	2.1194653785183732e+19	9.3041457193132464e+02	9.4999999999999996e-01		2.8105642402552481e-07	4.6428571428571430e-01	2.4386369476790614e-06
13	1.1423512068154575e-11	1.8919102560780811e+04	2.1614177513880773e+19	9.3041459756305335e+02	9.4999999999999996e-01		3.0585449517385823e-07	4.6428571428571430e-01	2.4603573593037699e-06
14	1.1539745452597916e-11	1.9111603267314556e+04	2.2041742053467890e+19	9.3041462340820931e+02	9.4999999999999996e-01		3.3087329406057194e-07	4.6428571428571430e-01	2.4822428262739887e-06
15	1.1657161503171226e-11	1.9306062659252857e+04	2.2477496535855534e+19	9.3041464946832275e+02	9.4999999999999996e-01		3.5611449676737853e-07	4.6428571428571430e-01	2.5042943558406885e-06
16	1.1775772253415963e-11	1.9502500666170159e+04	2.2921592767940280e+19	9.3041467574493311e+02	9.4999999999999996e-01		3.8157978959485211e-07	4.6428571428571430e-01	2.5265129595354260e-06
17	1.1895589859313980e-11	1.9700937420424598e+04	2.3374185277986914e+19	9.3041470223958822e+02	9.4999999999999996e-01		4.0727086910577398e-07	4.6428571428571430e-01	2.5488996531807320e-06
18	1.2016626600533356e-11	1.9901393259221342e+04	2.3835431362790035e+19	9.3041472895384561e+02	9.4999999999999996e-01		4.3318944216866969e-07	4.6428571428571430e-01	2.5714554568975924e-06
19	1.2138894881686887e-11	2.0103888726696932e+04	2.4305491135623610e+19	9.3041475588927119e+02	9.4999999999999996e-01		4.5933722600130319e-07	4.6428571428571430e-01	2.5941813951112214e-06
20	1.2262407233603393e-11	2.0308444576024798e+04	2.4784527574994940e+19	9.3041478304744032e+02	9.4999999999999996e-01		4.8571594821433227e-07	4.6428571428571430e-01	2.6170784965556153e-06
21	1.2387176314611954e-11	2.0515081771542256e+04	2.5272706574211924e+19	9.3041481042993723e+02	9.4999999999999996e-01		5.1232734685489462e-07	4.6428571428571430e-01	2.6401477942825921e-06
22	1.2513214911839225e-11	2.0723821490899110e+04	2.5770196991782588e+19	9.3041483803835581e+02	9.4999999999999996e-01		5.3917317045044920e-07	4.6428571428571430e-01	2.6633903256675782e-06
23	1.2640535942519958e-11	2.0934685127228178e+04	2.6277170702653297e+19	9.3041486587429824e+02	9.4999999999999996e-01		5.6625517805248049e-07	4.6428571428571430e-01	2.6868071324098660e-06
24	1.2769152455320712e-11	2.1147694291337590e+04	2.6793802650303664e+19	9.3041489393937673e+02	9.4999999999999996e-01		5.9357513928031819e-07	4.6428571428571430e-01	2.7103992605444319e-06
25	1.2899077631677374e-11	2.1362870813926063e+04	2.7320270899713151e+19	9.3041492223521220e+02	9.4999999999999996e-01		6.2113483436512172e-07	4.6428571428571430e-01	2.7341677604497965e-06
26	1.3030324787145939e-11	2.1580236747820032e+04	2.7856756691210047e+19	9.3041495076343517e+02	9.4999999999999996e-01		6.4893605419385743e-07	4.6428571428571430e-01	2.7581136868495831e-06
27	1.3162907372767202e-11	2.1799814370233886e+04	2.8403444495217209e+19	9.3041497952568557e+02	9.4999999999999996e-01		6.7698060035327327e-07	4.6428571428571430e-01	2.7822380988147137e-06
28	1.3296838976445306e-11	2.2021626185053130e+04	2.8960522067910558e+19	9.3041500852361241e+02	9.4999999999999996e-01		7.0527028517395298e-07	4.6428571428571430e-01	2.8065420597779908e-06
29	1.3432133324340316e-11	2.2245694925140782e+04	2.9528180507807633e+19	9.3041503775887429e+02	9.4999999999999996e-01		7.3380693177457946e-07	4.6428571428571430e-01	2.8310266375372828e-06
30	1.3568804282274955e-11	2.2472043554667263e+04	3.0106614313294213e+19	9.3041506723313933e+02	9.4999999999999996e-01		7.6259237410605253e-07	4.6428571428571430e-01	2.8556929042534231e-06
31	1.3706865857155680e-11	2.2700695271463948e+04	3.0696021441108963e+19	9.3041509694808485e+02	9.4999999999999996e-01		7.9162845699570942e-07	4.6428571428571430e-01	2.8805419364645758e-06
32	1.3846332198408183e-11	2.2931673509400684e+04	3.1296603365803381e+19	9.3041512690539798e+02	9.4999999999999996e-01		8.2091703619173556e-07	4.6428571428571430e-01	2.9055748150923617e-06
33	1.3987217599427523e-11	2.3165001940787537e+04	3.1908565140187431e+19	9.3041515710677584e+02	9.4999999999999996e-01		8.5045997840750547e-07	4.6428571428571430e-01	2.9307926254405975e-06
34	1.4129536499042974e-11	2.3400704478800886e+04	3.2532115456779067e+19	9.3041518755392383e+02	9.4999999999999996e-01		8.8025916136596942e-07	4.6428571428571430e-01	2.9561964572007171e-06
35	1.4273303482997867e-11	2.3638805279934339e+04	3.3167466710274179e+19	9.3041521824855840e+02	9.4999999999999996e-01		9.1031647384410606e-07	4.6428571428571430e-01	2.9817874044653104e-06
36	1.4418533285444360e-11	2.3879328746474421e+04	3.3814835061056348e+19	9.3041524919240499e+02	9.4999999999999996e-01		9.4063381571758206e-07	4.6428571428571430e-01	3.0075665657282319e-06
37	1.4565240790453538e-11	2.4122299529001622e+04	3.4474440499754369e+19	9.3041528038719900e+02	9.4999999999999996e-01		9.7121309800520479e-07	4.6428571428571430e-01	3.0335350438868096e-06
38	1.4713441033540803e-11	2.4367742528916759e+04	3.5146506912874177e+19	9.3041531183468555e+02	9.4999999999999996e-01		1.0020562429136305e-06	4.6428571428571430e-01	3.0596939462529719e-06
39	1.4863149203206869e-11	2.4615682900993212e+04	3.5831262149516390e+19	9.3041534353661962e+02	9.4999999999999996e-01		1.0331651838820486e-06	4.6428571428571430e-01	3.0860443845562692e-06
40	1.5014380642494149e-11	2.4866146055954639e+04	3.6528938089198453e+19	9.3041537549476561e+02	9.4999999999999996e-01		1.0645418656269124e-06	4.6428571428571430e-01	3.1125874749416793e-06
41	1.5167150850559551e-11	2.5119157663079866e+04	3.7239770710797042e+19	9.3041540771089853e+02	9.4999999999999996e-01		1.0961882441866282e-06	4.6428571428571430e-01	3.1393243379879566e-06
42	1.5321475484262695e-11	2.5374743652833320e+04	3.7964000162639102e+19	9.3041544018680304e+02	9.4999999999999996e-01		1.1281062869666657e-06	4.6428571428571430e-01	3.1662560987038110e-06
43	1.5477370359770583e-11	2.5632930219522728e+04	3.8701870833737646e+19	9.3041547292427356e+02	9.4999999999999996e-01		1.1602979727841030e-06	4.6428571428571430e-01	3.1933838865309702e-06
44	1.5634851454178557e-11	2.5893743823983739e+04	3.9453631426218885e+19	9.3041550592511476e+02	9.4999999999999996e-01		1.1927652919128542e-06	4.6428571428571430e-01	3.2207088353610667e-06
45	1.5793934907147698e-11	2.6157211196291901e+04	4.0219535028936163e+19	9.3041553919114142e+02	9.4999999999999996e-01		1.2255102461285401e-06	4.6428571428571430e-01	3.2482320835210550e-06
46	1.5954637022558962e-11	2.6423359338502160e+04	4.0999839192298938e+19	9.3041557272417788e+02	9.4999999999999996e-01		1.2585348487534183e-06	4.6428571428571430e-01	3.2759547737940144e-06
47	1.6116974270184065e-11	2.6692215527416334e+04	4.1794806004343718e+19	9.3041560652605972e+02	9.4999999999999996e-01		1.2918411247016816e-06	4.6428571428571430e-01	3.3038780534190142e-06
48	1.6280963287373435e-11	2.6963807317378643e+04	4.2604702168049082e+19	9.3041564059863128e+02	9.4999999999999996e-01		1.3254311105243782e-06	4.6428571428571430e-01	3.3320030740948266e-06
49	1.6446620880761307e-11	2.7238162543099785e+04	4.3429799079934616e+19	9.3041567494374863e+02	9.4999999999999996e-01		1.3593068544547933e-06	4.6428571428571430e-01	3.3603309919836129e-06
50	1.6613964027988162e-11	2.7515309322509635e+04	4.4270372909943595e+19	9.3041570956327666e+02	9.4999999999999996e-01		1.3934704164534338e-06	4.6428571428571430e-01	3.3888629677141901e-06
51	1.6783009879440725e-11	2.7795276059639098e+04	4.5126704682650976e+19	9.3041574445909180e+02	9.4999999999999996e-01		1.4279238682534853e-06	4.6428571428571430e-01	3.4176001663914631e-06
52	1.6953775760009613e-11	2.8078091447531184e+04	4.5999080359799349e+19	9.3041577963308021e+02	9.4999999999999996e-01		1.4626692934059851e-06	4.6428571428571430e-01	3.4465437575957472e-06
53	1.7126279170864922e-11	2.8363784471181720e+04	4.6887790924197437e+19	9.3041581508713853e+02	9.4999999999999996e-01		1.4977087873252605e-06	4.6428571428571430e-01	3.4756949153902898e-06
54	1.7300537791249904e-11	2.8652384410510160e+04	4.7793132464994034e+19	9.3041585082317329e+02	9.4999999999999996e-01		1.5330444573342712e-06	4.6428571428571430e-01	3.5050548183208636e-06
55	1.7476569480292627e-11	2.8943920843360025e+04	4.8715406264352416e+19	9.3041588684310273e+02	9.4999999999999996e-01		1.5686784227099925e-06	4.6428571428571430e-01	3.5346246494288858e-06
56	1.7654392278836643e-11	2.9238423648530948e+04	4.9654918885553971e+19	9.3041592314885509e+02	9.4999999999999996e-01		1.6046128147290819e-06	4.6428571428571430e-01	3.5644055962464575e-06
57	1.7834024411289647e-11	2.9535923008840487e+04	5.0611982262536225e+19	9.3041595974236827e+02	9.4999999999999996e-01		1.6408497767131549e-06	4.6428571428571430e-01	3.5943988507969874e-06
58	1.8015484287491356e-11	2.9836449414217710e+04	5.1586913790907335e+19	9.3041599662559202e+02	9.4999999999999996e-01		1.6773914640744146e-06	4.6428571428571430e-01	3.6246056096123899e-06
59	1.8198790504600218e-11	3.0140033664828046e+04	5.2580036420452516e+19	9.3041603380048605e+02	9.4999999999999996e-01		1.7142400443613212e-06	4.6428571428571430e-01	3.6550270737334645e-06
60	1.8383961848999383e-11	3.0446706874230003e+04	5.3591678749153493e+19	9.3041607126902090e+02	9.4999999999999996e-01		1.7513976973042115e-06	4.6428571428571430e-01	3.6856644487036751e-06
61	1.8571017298222046e-11	3.0756500472563981e+04	5.4622175118744396e+19	9.3041610903317803e+02	9.4999999999999996e-01		1.7888666148608474e-06	4.6428571428571430e-01	3.7165189445764686e-06
62	1.8759976022896383e-11	3.1069446209773520e+04	5.5671865711836398e+19	9.3041614709494957e+02	9.4999999999999996e-01		1.8266490012621857e-06	4.6428571428571430e-01	3.7475917759303181e-06
63	1.8950857388710290e-11	3.1385576158859345e+04	5.6741096650632143e+19	9.3041618545633833e+02	9.4999999999999996e-01		1.8647470730582251e-06	4.6428571428571430e-01	3.7788841618605643e-06
64	1.9143680958396063e-11	3.1704922719166523e+04	5.7830220097246151e+19	9.3041622411935793e+02	9.4999999999999996e-01		1.9031630591636116e-06	4.6428571428571430e-01	3.8103973259799031e-06
65	1.9338466493735365e-11	3.2027518619705057e+04	5.8939594355670524e+19	9.3041626308603327e+02	9.4999999999999996e-01		1.9418992009035021e-06	4.6428571428571430e-01	3.8421324964374410e-06
66	1.9535233957584488e-11	3.2353396922504267e+04	6.0069583975408558e+19	9.3041630235840000e+02	9.4999999999999996e-01		1.9809577520595517e-06	4.6428571428571430e-01	3.8740909059062400e-06
67	1.9734003515920303e-11	3.2682591026001297e+04	6.1220559856787636e+19	9.3041634193850450e+02	9.4999999999999996e-01		2.0203409789155178e-06	4.6428571428571430e-01	3.9062737915929261e-06
68	1.9934795539906975e-11	3.3015134668464139e+04	6.2392899358006485e+19	9.3041638182840461e+02	9.4999999999999996e-01		2.0600511603034553e-06	4.6428571428571430e-01	3.9386823952479357e-06
69	2.0137630607983760e-11	3.3351061931449447e+04	6.3586986403915342e+19	9.3041642203016943e+02	9.4999999999999996e-01		2.1000905876495195e-06	4.6428571428571430e-01	3.9713179631526807e-06
70	2.0342529507974025e-11	3.3690407243295638e+04	6.4803211596572271e+19	9.3041646254587806e+02	9.4999999999999996e-01		2.1404615650199158e-06	4.6428571428571430e-01	4.0041817461352426e-06
71	2.0549513239215498e-11	3.4033205382650995e+04	6.6041972327602627e+19	9.3041650337762212e+02	9.4999999999999996e-01		2.1811664091669650e-06	4.6428571428571430e-01	4.0372749995697626e-06
72	2.0758603014712793e-11	3.4379491482038873e+04	6.7303672892385329e+19	9.3041654452750345e+02	9.4999999999999996e-01		2.2222074495751175e-06	4.6428571428571430e-01	4.0705989833809411e-06
73	2.0969820263311185e-11	3.4729301031457857e+04	6.8588724606100218e+19	9.3041658599763605e+02	9.4999999999999996e-01		2.2635870285070989e-06	4.6428571428571430e-01	4.1041549620431025e-06
74	2.1183186631892840e-11	3.5082669882019334e+04	6.9897545921654923e+19	9.3041662779014416e+02	9.4999999999999996e-01		2.3053075010498392e-06	4.6428571428571430e-01	4.1379442045866868e-06
75	2.1398723987595317e-11	3.5439634249621828e+04	7.1230562549540618e+19	9.3041666990716453e+02	9.4999999999999996e-01		2.3473712351608114e-06	4.6428571428571430e-01	4.1719679845999441e-06
76	2.1616454420052665e-11	3.5800230718662751e+04	7.2588207579621310e+19	9.3041671235084414e+02	9.4999999999999996e-01		2.3897806117139717e-06	4.6428571428571430e-01	4.2062275802282018e-06
77	2.1836400243659296e-11	3.6164496245787981e+04	7.3970921604912382e+19	9.3041675512334234e+02	9.4999999999999996e-01		2.4325380245460892e-06	4.6428571428571430e-01	4.2407242741839625e-06
78	2.2058583999856897e-11	3.6532468163679492e+04	7.5379152847361098e+19	9.3041679822682943e+02	9.4999999999999996e-01		2.4756458805028924e-06	4.6428571428571430e-01	4.2754593537433115e-06
79	2.2283028459444640e-11	3.6904184184881618e+04	7.6813357285670027e+19	9.3041684166348728e+02	9.4999999999999996e-01		2.5191065994853199e-06	4.6428571428571430e-01	4.3104341107483567e-06
80	2.2509756624912854e-11	3.7279682405666208e+04	7.8273998785190232e+19	9.3041688543550970e+02	9.4999999999999996e-01		2.5629226144957202e-06	4.6428571428571430e-01	4.3456498416140322e-06
81	2.2738791732800481e-11	3.7659001309937063e+04	7.9761549229924696e+19	9.3041692954510165e+02	9.4999999999999996e-01		2.6070963716842388e-06	4.6428571428571430e-01	4.3811078473271356e-06
82	2.2970157256076486e-11	3.8042179773174248e+04	8.1276488656662020e+19	9.3041697399448003e+02	9.4999999999999996e-01		2.6516303303949993e-06	4.6428571428571430e-01	4.4168094334467756e-06
83	2.3203876906545522e-11	3.8429257066418329e+04	8.2819305391287796e+19	9.3041701878587321e+02	9.4999999999999996e-01		2.6965269632124994e-06	4.6428571428571430e-01	4.4527559101170704e-06
84	2.3439974637278087e-11	3.8820272860295387e+04	8.4390496187302248e+19	9.3041706392152184e+02	9.4999999999999996e-01		2.7417887560080519e-06	4.6428571428571430e-01	4.4889485920573225e-06
85	2.3678474645065421e-11	3.9215267229082885e+04	8.5990566366569202e+19	9.3041710940367784e+02	9.4999999999999996e-01		2.7874182079859915e-06	4.6428571428571430e-01	4.5253887985592130e-06
86	2.3919401372899043e-11	3.9614280654816394e+04	8.7620029962342793e+19	9.3041715523460493e+02	9.4999999999999996e-01		2.8334178317299961e-06	4.6428571428571430e-01	4.5620778535078894e-06
87	2.4162779512476316e-11	4.0017354031439463e+04	8.9279409864618492e+19	9.3041720141657913e+02	9.4999999999999996e-01		2.8797901532498092e-06	4.6428571428571430e-01	4.5990170853778321e-06
88	2.4408634006730684e-11	4.0424528668994200e+04	9.0969237967812624e+19	9.3041724795188816e+02	9.4999999999999996e-01		2.9265377120274679e-06	4.6428571428571430e-01	4.6362078272198714e-06
89	2.4656990052388020e-11	4.0835846297855380e+04	9.2690055320829919e+19	9.3041729484283144e+02	9.4999999999999996e-01		2.9736630610636818e-06	4.6428571428571430e-01	4.6736514166779514e-06
90	2.4907873102549026e-11	4.1251349073007361e+04	9.4442412279560602e+19	9.3041734209172125e+02	9.4999999999999996e-01		3.0211687669244767e-06	4.6428571428571430e-01	4.7113491959905804e-06
91	2.5161308869297734e-11	4.1671079578364537e+04	9.6226868661825552e+19	9.3041738970088090e+02	9.4999999999999996e-01		3.0690574097875725e-06	4.6428571428571430e-01	4.7493025119845563e-06
92	2.5417323326336698e-11	4.2095080831135812e+04	9.8043993904823222e+19	9.3041743767264688e+02	9.4999999999999996e-01		3.1173315834889075e-06	4.6428571428571430e-01	4.7875127160849408e-06
93	2.5675942711648925e-11	4.2523396286233423e+04	9.9894367225113395e+19	9.3041748600936671e+02	9.4999999999999996e-01		3.1659938955692144e-06	4.6428571428571430e-01	4.8259811643033368e-06
94	2.5937193530186924e-11	4.2956069840726675e+04	1.0177857778116510e+20	9.3041753471340110e+02	9.4999999999999996e-01		3.2150469673203122e-06	4.6428571428571430e-01	4.8647092172546800e-06
95	2.6201102556589055e-11	4.3393145838340934e+04	1.0369722483854282e+20	9.3041758378712245e+02	9.4999999999999996e-01		3.2644934338320189e-06	4.6428571428571430e-01	4.9036982401609792e-06
96	2.6467696837923625e-11	4.3834669074002457e+04	1.0565091793772788e+20	9.3041763323291582e+02	9.4999999999999996e-01		3.3143359440385194e-06	4.6428571428571430e-01	4.9429496028315025e-06
97	2.6737003696460787e-11	4.4280684798429429e+04	1.0764027706464189e+20	9.3041768305317828e+02	9.4999999999999996e-01		3.3645771607648764e-06	4.6428571428571430e-01	4.9824646796753271e-06
98	2.7009050732472714e-11	4.4731238722769740e+04	1.0966593282391373e+20	9.3041773325031943e+02	9.4999999999999996e-01		3.4152197607736520e-06	4.6428571428571430e-01	5.0222448497102298e-06
99	2.7283865827062268e-11	4.5186377023285939e+04	1.1172852661493101e+20	9.3041778382676148e+02	9.4999999999999996e-01		3.4662664348116034e-06	4.6428571428571430e-01	5.0622914965621447e-06
100	2.7561477145020403e-11	4.5646146346087837e+04	1.1382871081071328e+20	9.3041783478493892e+02	9.4999999999999996e-01		3.5177198876562884e-06	4.6428571428571430e-01	5.1026060084523968e-06
101	2.7841913137712777e-11	4.6110593811913517e+04	1.1596714893964753e+20	9.3041788612729908e+02	9.4999999999999996e-01		3.5695828381625214e-06	4.6428571428571430e-01	5.1431897782066465e-06
102	2.8125202545995226e-11	4.6579767020958017e+04	1.1814451587014803e+20	9.3041793785630136e+02	9.4999999999999996e-01		3.6218580193090873e-06	4.6428571428571430e-01	5.1840442032663827e-06
