# link: https://git.ligo.org/extreme-matter/eos-models-in-lal-and-bilby/eos_tables/-/blob/main/Modified_tables/eos_Crust_BsK24_nbmin_1e-11_core_SKOp_modified.d
# SHA: 2e3690ed9867cb3bc16a62a46657112b7a8a42bd
#
# Model Crust_BsK24_nbmin_1e-11_core_SKOp
# Model computed at temperature 0.0  MeV
#
#1363	number of points
#
#  n_B [1/fm^3]   eps[g/cm^3]   P[dyn/cm^2] mu_B [MeV] mu_e [MeV] log-enthalpy H [dimensionless] Y_e+Y_mu[dimensionless] cs2[speed of sound squared]
#
0	9.9995994919116430e-12	1.6586122468902155e+04	1.6736726261730990e+19	9.3041428045287444e+02	9.4999999999999996e-01		1.0000000000000000e-10	4.6428571428571430e-01	2.2362879491571580e-06
1	1.0470813842844200e-11	1.7367716584427875e+04	1.8307633028124113e+19	9.3041438750724171e+02	9.4999999999999996e-01		1.0311009910977480e-07	4.6428571428571430e-01	2.2817207767234802e-06
2	1.0964233382746476e-11	1.8186142100873280e+04	2.0020978647420674e+19	9.3041449871712928e+02	9.4999999999999996e-01		2.1029631305540426e-07	4.6428571428571430e-01	2.3763338410202228e-06
3	1.1480904491686593e-11	1.9043134644276732e+04	2.1889232141263196e+19	9.3041461422104373e+02	9.4999999999999996e-01		3.2202622052336231e-07	4.6428571428571430e-01	2.4742809661873687e-06
4	1.2021922863600991e-11	1.9940511629832730e+04	2.3925915787616600e+19	9.3041473416122653e+02	9.4999999999999996e-01		4.3823080691955319e-07	4.6428571428571430e-01	2.5756560708829419e-06
5	1.2588435819775656e-11	2.0880176116126306e+04	2.6145690936867549e+19	9.3041485868372820e+02	9.4999999999999996e-01		5.5930368162176474e-07	4.6428571428571430e-01	2.6805549065906529e-06
6	1.3181644752963720e-11	2.1864120840995274e+04	2.8564450571016393e+19	9.3041498793848211e+02	9.4999999999999996e-01		6.8516669278691087e-07	4.6428571428571430e-01	2.7890750698746532e-06
7	1.3802807663154890e-11	2.2894432447581377e+04	3.1199419116981105e+19	9.3041512207938092e+02	9.4999999999999996e-01		8.1624098732512189e-07	4.6428571428571430e-01	2.9013160141268181e-06
8	1.4453241838429638e-11	2.3973295909532277e+04	3.4069260062412001e+19	9.3041526126435190e+02	9.4999999999999996e-01		9.5243841869362512e-07	4.6428571428571430e-01	3.0173790608042349e-06
9	1.5134326634309720e-11	2.5102999164738769e+04	3.7194191962420027e+19	9.3041540565543482e+02	9.4999999999999996e-01		1.0942092435666924e-06	4.6428571428571430e-01	3.1373674101371998e-06
10	1.5847506414348201e-11	2.6285937967436439e+04	4.0596113468439675e+19	9.3041555541886055e+02	9.4999999999999996e-01		1.2414544052891819e-06	4.6428571428571430e-01	3.2613861513089791e-06
11	1.6594293596384201e-11	2.7524620968959731e+04	4.4298738056310948e+19	9.3041571072512966e+02	9.4999999999999996e-01		1.3946549096084839e-06	4.6428571428571430e-01	3.3895422720951450e-06
12	1.7376271878112923e-11	2.8821675037926649e+04	4.8327739179688845e+19	9.3041587174909307e+02	9.4999999999999996e-01		1.5536998139186870e-06	4.6428571428571430e-01	3.5219446679463785e-06
13	1.8195099575789187e-11	3.0179850831134550e+04	5.2710906627392299e+19	9.3041603867003244e+02	9.4999999999999996e-01		1.7191025811110565e-06	4.6428571428571430e-01	3.6587041505184395e-06
14	1.9052513162487157e-11	3.1602028626984305e+04	5.7478314919468237e+19	9.3041621167174435e+02	9.4999999999999996e-01		1.8907393438776558e-06	4.6428571428571430e-01	3.7999334556373327e-06
15	1.9950330927229173e-11	3.3091224433803749e+04	6.2662504636807643e+19	9.3041639094262064e+02	9.4999999999999996e-01		2.0691578007660611e-06	4.6428571428571430e-01	3.9457472506908429e-06
16	2.0890456856353004e-11	3.4650596386024212e+04	6.8298677643396817e+19	9.3041657667573497e+02	9.4999999999999996e-01		2.2542200555980484e-06	4.6428571428571430e-01	4.0962621414425009e-06
17	2.1874884643702860e-11	3.6283451441778117e+04	7.4424907229022650e+19	9.3041676906892621e+02	9.4999999999999996e-01		2.4465098932066642e-06	4.6428571428571430e-01	4.2515966782588686e-06
18	2.2905701948497666e-11	3.7993252396119155e+04	8.1082364273682629e+19	9.3041696832488617e+02	9.4999999999999996e-01		2.6458742164383362e-06	4.6428571428571430e-01	4.4118713617503584e-06
19	2.3985094790132771e-11	3.9783625224741772e+04	8.8315560613566906e+19	9.3041717465124520e+02	9.4999999999999996e-01		2.8529348208257321e-06	4.6428571428571430e-01	4.5772086478182445e-06
20	2.5115352219210861e-11	4.1658366773774207e+04	9.6172610872391025e+19	9.3041738826066148e+02	9.4999999999999996e-01		3.0675221656688580e-06	4.6428571428571430e-01	4.7477329520942718e-06
21	2.6298871133689499e-11	4.3621452811952600e+04	1.0470551411164047e+20	9.3041760937090964e+02	9.4999999999999996e-01		3.2902980570601153e-06	4.6428571428571430e-01	4.9235706537872450e-06
22	2.7538161403325471e-11	4.5677046462257480e+04	1.1397045674926875e+20	9.3041783820497108e+02	9.4999999999999996e-01		3.5210751951793062e-06	4.6428571428571430e-01	5.1048500989198745e-06
23	2.8835851147390483e-11	4.7829507030890600e+04	1.2402813829879367e+20	9.3041807499112508e+02	9.4999999999999996e-01		3.7605574736366328e-06	4.6428571428571430e-01	5.2917016029530630e-06
24	3.0194692356724446e-11	5.0083399252322430e+04	1.3494412159038471e+20	9.3041831996304086e+02	9.4999999999999996e-01		4.0085384423783062e-06	4.6428571428571430e-01	5.4842574528004762e-06
25	3.1617566677055028e-11	5.2443502970013149e+04	1.4678920925243734e+20	9.3041857335987083e+02	9.4999999999999996e-01		4.2657662382293075e-06	4.6428571428571430e-01	5.6826519082307202e-06
26	3.3107491577189695e-11	5.4914823273343114e+04	1.5963984835724077e+20	9.3041883542634480e+02	9.4999999999999996e-01		4.5320137917130905e-06	4.6428571428571430e-01	5.8870212026573596e-06
27	3.4667626686147379e-11	5.7502601112250857e+04	1.7357856526775144e+20	9.3041910641286472e+02	9.4999999999999996e-01		4.8080757189365524e-06	4.6428571428571430e-01	6.0975035433071277e-06
28	3.6301280560782271e-11	6.0212324412089198e+04	1.8869443286509915e+20	9.3041938657560047e+02	9.4999999999999996e-01		5.0937027812070774e-06	4.6428571428571430e-01	6.3142391107784057e-06
29	3.8011917629497489e-11	6.3049739712278468e+04	2.0508357248874522e+20	9.3041967617658838e+02	9.4999999999999996e-01		5.3897383919684105e-06	4.6428571428571430e-01	6.5373700579815879e-06
30	3.9803165617830130e-11	6.6020864353435172e+04	2.2284969308365472e+20	9.3041997548382631e+02	9.4999999999999996e-01		5.6959095103958066e-06	4.6428571428571430e-01	6.7670405084666624e-06
31	4.1678823156505801e-11	6.9131999238829769e+04	2.4210467022252491e+20	9.3042028477137524e+02	9.4999999999999996e-01		6.0131107489179496e-06	4.6428571428571430e-01	7.0033965541427951e-06
32	4.3642867929269025e-11	7.2389742197237734e+04	2.6296916785624662e+20	9.3042060431945686e+02	9.4999999999999996e-01		6.3410435460362320e-06	4.6428571428571430e-01	7.2465862523808132e-06
33	4.5699465008494378e-11	7.5801001975523322e+04	2.8557330584349609e+20	9.3042093441455484e+02	9.4999999999999996e-01		6.6806561999973333e-06	4.6428571428571430e-01	7.4967596225116589e-06
34	4.7852975795868892e-11	7.9373012890639977e+04	3.1005737652145966e+20	9.3042127534951601e+02	9.4999999999999996e-01		7.0316228219767910e-06	4.6428571428571430e-01	7.7540686417243784e-06
35	5.0107967154743887e-11	8.3113350172115883e+04	3.3657261380471508e+20	9.3042162742365247e+02	9.4999999999999996e-01		7.3949479696331834e-06	4.6428571428571430e-01	8.0186672403552428e-06
36	5.2469221221228715e-11	8.7029946027573926e+04	3.6528201853961280e+20	9.3042199094284354e+02	9.4999999999999996e-01		7.7702765295938690e-06	4.6428571428571430e-01	8.2907112965921052e-06
37	5.4941745408988564e-11	9.1131106465352568e+04	3.9636124409783891e+20	9.3042236621964071e+02	9.4999999999999996e-01		8.1586719808446688e-06	4.6428571428571430e-01	8.5703586305825073e-06
38	5.7530783175953349e-11	9.5425528909914821e+04	4.2999954646607960e+20	9.3042275357337007e+02	9.4999999999999996e-01		8.5597479952390277e-06	4.6428571428571430e-01	8.8577689979525828e-06
39	6.0241824984397309e-11	9.9922320647405111e+04	4.6640080338055247e+20	9.3042315333023782e+02	9.4999999999999996e-01		8.9746297248715887e-06	4.6428571428571430e-01	9.1531040827585848e-06
40	6.3080620116871973e-11	1.0463101814047359e+05	5.0578460736597983e+20	9.3042356582343575e+02	9.4999999999999996e-01		9.4028975411903881e-06	4.6428571428571430e-01	9.4565274898595302e-06
41	6.6053188682193079e-11	1.0956160725334311e+05	5.4838743787041069e+20	9.3042399139324607e+02	9.4999999999999996e-01		9.8457411125751308e-06	4.6428571428571430e-01	9.7682047367205635e-06
42	6.9165834583452263e-11	1.1472454443000644e+05	5.9446391804072401e+20	9.3042443038714828e+02	9.4999999999999996e-01		1.0302705326664805e-05	4.6428571428571430e-01	1.0088303244671414e-05
43	7.2425158669050768e-11	1.2013077887048194e+05	6.4428816206108715e+20	9.3042488315992568e+02	9.4999999999999996e-01		1.0775047304204715e-05	4.6428571428571430e-01	1.0416992329605921e-05
44	7.5838072965809923e-11	1.2579177575216103e+05	6.9815521937805450e+20	9.3042535007377160e+02	9.4999999999999996e-01		1.1262274165521916e-05	4.6428571428571430e-01	1.0754443192149056e-05
45	7.9411815083495632e-11	1.3171954054549648e+05	7.5638262256511051e+20	9.3042583149839641e+02	9.4999999999999996e-01		1.1765713514205751e-05	4.6428571428571430e-01	1.1100828907295347e-05
46	8.3153963837225647e-11	1.3792664447561715e+05	8.1931204603554012e+20	9.3042632781113559e+02	9.4999999999999996e-01		1.2284832317384320e-05	4.6428571428571430e-01	1.1456324413513258e-05
47	8.7072455024095957e-11	1.4442625118386085e+05	8.8731108329965250e+20	9.3042683939705614e+02	9.4999999999999996e-01		1.2821031787842039e-05	4.6428571428571430e-01	1.1821106501369580e-05
48	9.1175598571381310e-11	1.5123214464579159e+05	9.6077515098112157e+20	9.3042736664906431e+02	9.4999999999999996e-01		1.3373736248998215e-05	4.6428571428571430e-01	1.2195353801624690e-05
49	9.5472095814976062e-11	1.5835875840490198e+05	1.0401295283591293e+21	9.3042790996801182e+02	9.4999999999999996e-01		1.3944423746514146e-05	4.6428571428571430e-01	1.2579246772853795e-05
50	9.9971058323413785e-11	1.6582120618402070e+05	1.1258315417930942e+21	9.3042846976280418e+02	9.4999999999999996e-01		1.4532473362777460e-05	4.6428571428571430e-01	1.2972967688612100e-05
51	1.0468202681996376e-10	1.7363531393935034e+05	1.2183729040129615e+21	9.3042904645050623e+02	9.4999999999999996e-01		1.5139443298776692e-05	4.6428571428571430e-01	1.3376700624107940e-05
52	1.0961499184738148e-10	1.8181765342511912e+05	1.3182822189266371e+21	9.3042964045644851e+02	9.4999999999999996e-01		1.5764664689598413e-05	4.6428571428571430e-01	1.3790631442451090e-05
53	1.1478041448873852e-10	1.9038557734005578e+05	1.4261276633084503e+21	9.3043025221433334e+02	9.4999999999999996e-01		1.6409779314197062e-05	4.6428571428571430e-01	1.4214947780462697e-05
54	1.2018924905420160e-10	1.9935725613022005e+05	1.5425198574895615e+21	9.3043088216634033e+02	9.4999999999999996e-01		1.7074067543060611e-05	4.6428571428571430e-01	1.4649839034049190e-05
55	1.2585296577012734e-10	2.0875171652626712e+05	1.6681149379794350e+21	9.3043153076322915e+02	9.4999999999999996e-01		1.7759258257339763e-05	4.6428571428571430e-01	1.5095496343196324e-05
56	1.3178357568719545e-10	2.1858888189688465e+05	1.8036178458070394e+21	9.3043219846444492e+02	9.4999999999999996e-01		1.8464578132574845e-05	4.6428571428571430e-01	1.5552112576569936e-05
57	1.3799365552308242e-10	2.2888961450398908e+05	1.9497858452851875e+21	9.3043288573821951e+02	9.4999999999999996e-01		1.9191846779321649e-05	4.6428571428571430e-01	1.6019882315715278e-05
58	1.4449637501110854e-10	2.3967575974933119e+05	2.1074322888764408e+21	9.3043359306167440e+02	9.4999999999999996e-01		1.9940234132813054e-05	4.6428571428571430e-01	1.6499001838928416e-05
59	1.5130552409903430e-10	2.5097019250634252e+05	2.2774306448768004e+21	9.3043432092091894e+02	9.4999999999999996e-01		2.0711654264560595e-05	4.6428571428571430e-01	1.6989669104780448e-05
60	1.5843554297921736e-10	2.6279686563552020e+05	2.4607188057367695e+21	9.3043506981115115e+02	9.4999999999999996e-01		2.1505217207221920e-05	4.6428571428571430e-01	1.7492083735304472e-05
61	1.6590155186487196e-10	2.7518086078625440e+05	2.6583036960160549e+21	9.3043584023675419e+02	9.4999999999999996e-01		2.2322935330509893e-05	4.6428571428571430e-01	1.8006446998895286e-05
62	1.7371938396677547e-10	2.8814844159284950e+05	2.8712662002181315e+21	9.3043663271139224e+02	9.4999999999999996e-01		2.3163855483499078e-05	4.6428571428571430e-01	1.8532961792909697e-05
63	1.8190561808882887e-10	3.0172710937760217e+05	3.1007664320834133e+21	9.3043744775810478e+02	9.4999999999999996e-01		2.4030092278377904e-05	4.6428571428571430e-01	1.9071832625992005e-05
64	1.9047761484283113e-10	3.1594566147906793e+05	3.3480493683351701e+21	9.3043828590939859e+02	9.4999999999999996e-01		2.4920625979126368e-05	4.6428571428571430e-01	1.9623265600151015e-05
65	1.9945355232754282e-10	3.3083425232926745e+05	3.6144508713815863e+21	9.3043914770733761e+02	9.4999999999999996e-01		2.5837677493027543e-05	4.6428571428571430e-01	2.0187468392619194e-05
66	2.0885246590219525e-10	3.4642445740938507e+05	3.9014041270801772e+21	9.3044003370363077e+02	9.4999999999999996e-01		2.6780156975257081e-05	4.6428571428571430e-01	2.0764650237490188e-05
67	2.1869428723765568e-10	3.6274934021961322e+05	4.2104465253772139e+21	9.3044094445971814e+02	9.4999999999999996e-01		2.7750395790464063e-05	4.6428571428571430e-01	2.1355021907147078e-05
68	2.2899988800142807e-10	3.7984352240523364e+05	4.5432270134505085e+21	9.3044188054685310e+02	9.4999999999999996e-01		2.8747230337487603e-05	4.6428571428571430e-01	2.1958795693539386e-05
69	2.3979112259612489e-10	3.9774325718765584e+05	4.9015139529150368e+21	9.3044284254618310e+02	9.4999999999999996e-01		2.9773106711551929e-05	4.6428571428571430e-01	2.2576185389304259e-05
70	2.5109087614406992e-10	4.1648650625622203e+05	5.2872035147040518e+21	9.3044383104882684e+02	9.4999999999999996e-01		3.0826783782253874e-05	4.6428571428571430e-01	2.3207406268753499e-05
71	2.6292311125727370e-10	4.3611302028384811e+05	5.7023286474233306e+21	9.3044484665594939e+02	9.4999999999999996e-01		3.1910826760819512e-05	4.6428571428571430e-01	2.3852675068764846e-05
72	2.7531292074869408e-10	4.5666442323734367e+05	6.1490686572991527e+21	9.3044588997883261e+02	9.4999999999999996e-01		3.3023913087846075e-05	4.6428571428571430e-01	2.4512209969546143e-05
73	2.8828657880951609e-10	4.7818430066121841e+05	6.6297594403090501e+21	9.3044696163894480e+02	9.4999999999999996e-01		3.4168731589470247e-05	4.6428571428571430e-01	2.5186230575382503e-05
74	3.0187159891702247e-10	5.0071829212228983e+05	7.1469044097159801e+21	9.3044806226800426e+02	9.4999999999999996e-01		3.5343874249272114e-05	4.6428571428571430e-01	2.5874957895326783e-05
75	3.1609678982942325e-10	5.2431418801118981e+05	7.7031861650127334e+21	9.3044919250804094e+02	9.4999999999999996e-01		3.6552158121948110e-05	4.6428571428571430e-01	2.6578614323835049e-05
76	3.3099231920755814e-10	5.4902203090610029e+05	8.3014789512575572e+21	9.3045035301145401e+02	9.4999999999999996e-01		3.7792085576455508e-05	4.6428571428571430e-01	2.7297423621455073e-05
77	3.4658977487502223e-10	5.7489422171379637e+05	8.9448619609380293e+21	9.3045154444106572e+02	9.4999999999999996e-01		3.9066606625682678e-05	4.6428571428571430e-01	2.8031610895511480e-05
78	3.6292223472302473e-10	6.0198563081310829e+05	9.6366335338524118e+21	9.3045276747017078e+02	9.4999999999999996e-01		4.0374129735513446e-05	4.6428571428571430e-01	2.8781402580851435e-05
79	3.8002433372441054e-10	6.3035371443662909e+05	1.0380326314069729e+22	9.3045402278258257e+02	9.4999999999999996e-01		4.1717742723888164e-05	4.6428571428571430e-01	2.9547026420647700e-05
80	3.9793234074840657e-10	6.6005863653754804e+05	1.1179723426815006e+22	9.3045531107267391e+02	9.4999999999999996e-01		4.3095755733136837e-05	4.6428571428571430e-01	3.0328711447308277e-05
81	4.1668423186163359e-10	6.9116339640011440e+05	1.2038875742160946e+22	9.3045663304541529e+02	9.4999999999999996e-01		4.4511399351573391e-05	4.6428571428571430e-01	3.1126687963515880e-05
82	4.3631977474272535e-10	7.2373396226451150e+05	1.2962120296685130e+22	9.3045798941640646e+02	9.4999999999999996e-01		4.5962880844354106e-05	4.6428571428571430e-01	3.1941187523411632e-05
83	4.5688060885187657e-10	7.5783941124954901e+05	1.3954099948805245e+22	9.3045938091190590e+02	9.4999999999999996e-01		4.7453578655185984e-05	4.6428571428571430e-01	3.2772442913936976e-05
84	4.7841033820505743e-10	7.9355207587007608e+05	1.5019784348335864e+22	9.3046080826885338e+02	9.4999999999999996e-01		4.8981592484257806e-05	4.6428571428571430e-01	3.3620688136372340e-05
85	5.0095461904635869e-10	8.3094769745992881e+05	1.6164492305954769e+22	9.3046227223488972e+02	9.4999999999999996e-01		5.0550453836617045e-05	4.6428571428571430e-01	3.4486158388109806e-05
86	5.2456126181842219e-10	8.7010558682586718e+05	1.7393915653716133e+22	9.3046377356837081e+02	9.4999999999999996e-01		5.2158150024551610e-05	4.6428571428571430e-01	3.5369090044645642e-05
87	5.4928032702916823e-10	9.1110879247340630e+05	1.8714144693557404e+22	9.3046531303837730e+02	9.4999999999999996e-01		5.3808370942559523e-05	4.6428571428571430e-01	3.6269720641894724e-05
88	5.7516423733987739e-10	9.5404427676134731e+05	2.0131695336900249e+22	9.3046689142471905e+02	9.4999999999999996e-01		5.5498986556061985e-05	4.6428571428571430e-01	3.7188288858752954e-05
89	6.0226788238024943e-10	9.9900310035880341e+05	2.1653538044991295e+22	9.3046850951793510e+02	9.4999999999999996e-01		5.7233850600523738e-05	4.6428571428571430e-01	3.8125034499991316e-05
90	6.3064874196907135e-10	1.0460806153960294e+06	2.3287128686585415e+22	9.3047016811928881e+02	9.4999999999999996e-01		5.9010710598675116e-05	4.6428571428571430e-01	3.9080198479521703e-05
91	6.6036700069939748e-10	1.0953766677188030e+06	2.5040441436950126e+22	9.3047186804075852e+02	9.4999999999999996e-01		6.0833589703112776e-05	4.6428571428571430e-01	4.0054022804026469e-05
92	6.9148568340982713e-10	1.1469958086755404e+06	2.6922003850022321e+22	9.3047361010502198e+02	9.4999999999999996e-01		6.2700107760439209e-05	4.6428571428571430e-01	4.1046750556979455e-05
93	7.2407078043535604e-10	1.2010475168863758e+06	2.8940934243864227e+22	9.3047539514543826e+02	9.4999999999999996e-01		6.4614463042456295e-05	4.6428571428571430e-01	4.2058625883108344e-05
94	7.5819139656102201e-10	1.2576464304647951e+06	3.1106981548427290e+22	9.3047722400602265e+02	9.4999999999999996e-01		6.6574142347895153e-05	4.6428571428571430e-01	4.3089893973327176e-05
95	7.9391988791410714e-10	1.3169125901844860e+06	3.3430567774011773e+22	9.3047909754141938e+02	9.4999999999999996e-01		6.8583524897015803e-05	4.6428571428571430e-01	4.4140801050103170e-05
96	8.3133202575739799e-10	1.3789716941072685e+06	3.5922833268787342e+22	9.3048101661686769e+02	9.4999999999999996e-01		7.0639958930002636e-05	4.6428571428571430e-01	4.5211594353381694e-05
97	8.7050714608542705e-10	1.4439553642124501e+06	3.8595684944342898e+22	9.3048298210816495e+02	9.4999999999999996e-01		7.2748010573289276e-05	4.6428571428571430e-01	4.6302522127054393e-05
98	9.1152832975307445e-10	1.5120014255931699e+06	4.1461847659459027e+22	9.3048499490162556e+02	9.4999999999999996e-01		7.4904883858340358e-05	4.6428571428571430e-01	4.7413833605918290e-05
99	9.5448256593306547e-10	1.5832541988122456e+06	4.4534918964248060e+22	9.3048705589403448e+02	9.4999999999999996e-01		7.7115337905254039e-05	4.6428571428571430e-01	4.8545779003313072e-05
100	9.9946095022838712e-10	1.6578648060376663e+06	4.7829427419487152e+22	9.3048916599259951e+02	9.4999999999999996e-01		7.9376426746588771e-05	4.6428571428571430e-01	4.9698609499314772e-05
101	1.0465588632508935e-09	1.7359914916074257e+06	5.1360894719401877e+22	9.3049132611489722e+02	9.4999999999999996e-01		8.1693108714704155e-05	4.6428571428571430e-01	5.0872577229653328e-05
102	1.0958761885346046e-09	1.8177999577036866e+06	5.5145901860486923e+22	9.3049353718881810e+02	9.4999999999999996e-01		8.4062281912605289e-05	4.6428571428571430e-01	5.2067935275224497e-05
