# link: https://git.ligo.org/extreme-matter/eos-models-in-lal-and-bilby/eos_tables/-/blob/main/Modified_tables/eos_Crust_BsK24_nbmin_1e-11_core_SLY9_modified.d
# SHA: 2e3690ed9867cb3bc16a62a46657112b7a8a42bd
#
# Model Crust_BsK24_nbmin_1e-11_core_SLY9
# Model computed at temperature 0.0  MeV
#
#1073	number of points
#
#  n_B [1/fm^3]   eps[g/cm^3]   P[dyn/cm^2] mu_B [MeV] mu_e [MeV] log-enthalpy H [dimensionless] Y_e+Y_mu[dimensionless] cs2[speed of sound squared]
#
0	9.9986875816895989e-12	1.6586122468902155e+04	1.6736726261730990e+19	9.3041428045287444e+02	9.4999999999999996e-01		1.0000000000000000e-10	4.6428571428571430e-01	2.2740380039713359e-06
1	1.0861047693117965e-11	1.8016632999929971e+04	1.9660408595578561e+19	9.3041447575718030e+02	9.4999999999999996e-01		1.8844342305146984e-07	4.6428571428571430e-01	2.3564221735832015e-06
2	1.1797784076444563e-11	1.9570521560620859e+04	2.3076284331691721e+19	9.3041468483243648e+02	9.4999999999999996e-01		3.9036340026313519e-07	4.6428571428571430e-01	2.5335585134385745e-06
3	1.2815311471945881e-11	2.1258429229251742e+04	2.7064161607558353e+19	9.3041490850793855e+02	9.4999999999999996e-01		6.0808646543600013e-07	4.6428571428571430e-01	2.7219406298334703e-06
4	1.3920597907998591e-11	2.3091914857029973e+04	3.1716307393335632e+19	9.3041514765312820e+02	9.4999999999999996e-01		8.4115388393953857e-07	4.6428571428571430e-01	2.9221342862503893e-06
5	1.5121212347541789e-11	2.5083534224829516e+04	3.7139319525706220e+19	9.3041540317900774e+02	9.4999999999999996e-01		1.0920798370616584e-06	4.6428571428571430e-01	3.1347246331542148e-06
6	1.6425376602138622e-11	2.7246926027172765e+04	4.3456269476629463e+19	9.3041567603958219e+02	9.4999999999999996e-01		1.3602969439427794e-06	4.6428571428571430e-01	3.3603164106163561e-06
7	1.7842021539559587e-11	2.9596905272315311e+04	5.0809153552452788e+19	9.3041596723333748e+02	9.4999999999999996e-01		1.6486370443237016e-06	4.6428571428571430e-01	3.5995341329789343e-06
8	1.9380848352766065e-11	3.2149564738084508e+04	5.9361695275192361e+19	9.3041627780474653e+02	9.4999999999999996e-01		1.9564059862698536e-06	4.6428571428571430e-01	3.8530222550449818e-06
9	2.1052394865171157e-11	3.4922385178293865e+04	6.9302547408280355e+19	9.3041660884581233e+02	9.4999999999999996e-01		2.2867855876461042e-06	4.6428571428571430e-01	4.1214453193394499e-06
10	2.2868107842231923e-11	3.7934355034487082e+04	8.0848948535542678e+19	9.3041696149764186e+02	9.4999999999999996e-01		2.6389346602892323e-06	4.6428571428571430e-01	4.4054880840223489e-06
11	2.4840421206234666e-11	4.1206100472865859e+04	9.4250896376094704e+19	9.3041733695205517e+02	9.4999999999999996e-01		3.0164197305857871e-06	4.6428571428571430e-01	4.7058556310978914e-06
12	2.6982841383202119e-11	4.4760026636974704e+04	1.0979590822227383e+20	9.3041773645322667e+02	9.4999999999999996e-01		3.4182300162956287e-06	4.6428571428571430e-01	5.0232734546140763e-06
13	2.9310039563529468e-11	4.8620471083528260e+04	1.2781444813727901e+20	9.3041816129936092e+02	9.4999999999999996e-01		3.8483539948439498e-06	4.6428571428571430e-01	5.3584875286007184e-06
14	3.1837952437206504e-11	5.2813870452213596e+04	1.4868611097330808e+20	9.3041861284440222e+02	9.4999999999999996e-01		4.3055862858408674e-06	4.6428571428571430e-01	5.7122643545558412e-06
15	3.4583891019050385e-11	5.7368941510937984e+04	1.7284666501335142e+20	9.3041909249977675e+02	9.4999999999999996e-01		4.7943771729078779e-06	4.6428571428571430e-01	6.0853909883448840e-06
16	3.7566659550868706e-11	6.2316877816452783e+04	2.0079606826256554e+20	9.3041960173616781e+02	9.4999999999999996e-01		5.3132990733506792e-06	4.6428571428571430e-01	6.4786750464400055e-06
17	4.0806683860699151e-11	6.7691563337236570e+04	2.3310758829833581e+20	9.3042014208532180e+02	9.4999999999999996e-01		5.8673066442106356e-06	4.6428571428571430e-01	6.8929446914826480e-06
18	4.4326151713386221e-11	7.3529804501697407e+04	2.7043817233458971e+20	9.3042071514188638e+02	9.4999999999999996e-01		6.4547197428959322e-06	4.6428571428571430e-01	7.3290485972202019e-06
19	4.8149164204272471e-11	7.9871582260959534e+04	3.1354023299099073e+20	9.3042132256527657e+02	9.4999999999999996e-01		7.0810427772803765e-06	4.6428571428571430e-01	7.7878558929181931e-06
20	5.2301901433802531e-11	8.6760325892577850e+04	3.6327503643459394e+20	9.3042196608156780e+02	9.4999999999999996e-01		7.7443097818154567e-06	4.6428571428571430e-01	8.2702560874336587e-06
21	5.6812801061777903e-11	9.4243210420444258e+04	4.2062790336255289e+20	9.3042264748541686e+02	9.4999999999999996e-01		8.4506231994478085e-06	4.6428571428571430e-01	8.7771589731685940e-06
22	6.1712753883678967e-11	1.0237147968790280e+05	4.8672546003486638e+20	9.3042336864200252e+02	9.4999999999999996e-01		9.1976949232699582e-06	4.6428571428571430e-01	9.3094945101984812e-06
23	6.7035314408684626e-11	1.1120079729680441e+05	5.6285520659904535e+20	9.3042413148898891e+02	9.4999999999999996e-01		9.9922767173678564e-06	4.6428571428571430e-01	9.8682126909545239e-06
24	7.2816931745114427e-11	1.2079162781610183e+05	6.5048770366728883e+20	9.3042493803850527e+02	9.4999999999999996e-01		1.0831718812800930e-05	4.6428571428571430e-01	1.0454283385850571e-05
25	7.9097197933656614e-11	1.3120965087091777e+05	7.5130171595001299e+20	9.3042579037913595e+02	9.4999999999999996e-01		1.1723476675916527e-05	4.6428571428571430e-01	1.1068696170348375e-05
26	8.5919120529993561e-11	1.4252621094824985e+05	8.6721269421030952e+20	9.3042669067792542e+02	9.4999999999999996e-01		1.2664496009589380e-05	4.6428571428571430e-01	1.1712460134015714e-05
27	9.3329415447296424e-11	1.5481880600011165e+05	1.0004050244262477e+21	9.3042764118238256e+02	9.4999999999999996e-01		1.3662993549962786e-05	4.6428571428571430e-01	1.2386603672149987e-05
28	1.0137882878329559e-10	1.6817161819068011e+05	1.1533685264457550e+21	9.3042864422248715e+02	9.4999999999999996e-01		1.4715464121350334e-05	4.6428571428571430e-01	1.3092174260649167e-05
29	1.1012248213037014e-10	1.8267609042269233e+05	1.3289397442716681e+21	9.3042970221268956e+02	9.4999999999999996e-01		1.5830946573059551e-05	4.6428571428571430e-01	1.3830238214840961e-05
30	1.1962025256474450e-10	1.9843155259192656e+05	1.5303486371826030e+21	9.3043081765390036e+02	9.4999999999999996e-01		1.7005434882632351e-05	4.6428571428571430e-01	1.4601880433039433e-05
31	1.2993717980050556e-10	2.1554590185923924e+05	1.7612713560259213e+21	9.3043199313545904e+02	9.4999999999999996e-01		1.8248854219195943e-05	4.6428571428571430e-01	1.5408204125663467e-05
32	1.4114391487891674e-10	2.3413634159965412e+05	2.0258898731563488e+21	9.3043323133708168e+02	9.4999999999999996e-01		1.9556643999639068e-05	4.6428571428571430e-01	1.6250330530796000e-05
33	1.5331720021213854e-10	2.5433018408996248e+05	2.3289593286901723e+21	9.3043453503077160e+02	9.4999999999999996e-01		2.0939683368336928e-05	4.6428571428571430e-01	1.7129398617126915e-05
34	1.6654039942667879e-10	2.7626572243289487e+05	2.6758840611731685e+21	9.3043590708269414e+02	9.4999999999999996e-01		2.2392799600473746e-05	4.6428571428571430e-01	1.8046564775251058e-05
35	1.8090406330775303e-10	3.0009317769024422e+05	3.0728034087258502e+21	9.3043735045500341e+02	9.4999999999999996e-01		2.3927897003440431e-05	4.6428571428571430e-01	1.9003002498362148e-05
36	1.9650655551689558e-10	3.2597572771251912e+05	3.5266884986901087e+21	9.3043886820761008e+02	9.4999999999999996e-01		2.5539129147825640e-05	4.6428571428571430e-01	1.9999902053431547e-05
37	2.1345471976081797e-10	3.5409062471236585e+05	4.0454513913728299e+21	9.3044046349988628e+02	9.4999999999999996e-01		2.7239500305869763e-05	4.6428571428571430e-01	2.1038470143987629e-05
38	2.3186461878348059e-10	3.8463040923696820e+05	4.6380681084742496e+21	9.3044213959229774e+02	9.4999999999999996e-01		2.9022424691417624e-05	4.6428571428571430e-01	2.2119929565670771e-05
39	2.5186232080508671e-10	4.1780422885498969e+05	5.3147172612038868e+21	9.3044389984795089e+02	9.4999999999999996e-01		3.0902085037481387e-05	4.6428571428571430e-01	2.3245518855759679e-05
40	2.7358477235963454e-10	4.5383927059103746e+05	6.0869361991668623e+21	9.3044574773404997e+02	9.4999999999999996e-01		3.2871086359919749e-05	4.6428571428571430e-01	2.4416491937952482e-05
41	2.9718072525204599e-10	4.9298231691986555e+05	6.9677968313330329e+21	9.3044768682325196e+02	9.4999999999999996e-01		3.4944872121010266e-05	4.6428571428571430e-01	2.5634117763672558e-05
42	3.2281176756369628e-10	5.3550143597904406e+05	7.9721035275460978e+21	9.3044972079491345e+02	9.4999999999999996e-01		3.7115164016290139e-05	4.6428571428571430e-01	2.6899679951199892e-05
43	3.5065341614282435e-10	5.8168781757834635e+05	9.1166157961755508e+21	9.3045185343621642e+02	9.4999999999999996e-01		3.9398752355548390e-05	4.6428571428571430e-01	2.8214476424029322e-05
44	3.8089633453975863e-10	6.3185776758297568e+05	1.0420298754085362e+22	9.3045408864316971e+02	9.4999999999999996e-01		4.1786397026555237e-05	4.6428571428571430e-01	2.9579819049829650e-05
45	4.1374762047650886e-10	6.8635487433279958e+05	1.1904604762893690e+22	9.3045643042147356e+02	9.4999999999999996e-01		4.4296325230752009e-05	4.6428571428571430e-01	3.0997033281394203e-05
46	4.4943224472726500e-10	7.4555236193840741e+05	1.3593790004773037e+22	9.3045888288724291e+02	9.4999999999999996e-01		4.6918252119633514e-05	4.6428571428571430e-01	3.2467457801073986e-05
47	4.8819456822332299e-10	8.0985564657521795e+05	1.5515270216503408e+22	9.3046145026758313e+02	9.4999999999999996e-01		4.9671935831761171e-05	4.6428571428571430e-01	3.3992444170165542e-05
48	5.3030004211341109e-10	8.7970511328760779e+05	1.7700020297365497e+22	9.3046413690101065e+02	9.4999999999999996e-01		5.2545959344852039e-05	4.6428571428571430e-01	3.5573356484716156e-05
49	5.7603699528576956e-10	9.5557913232594752e+05	2.0183023060587907e+22	9.3046694723771702e+02	9.4999999999999996e-01		5.5561709856507443e-05	4.6428571428571430e-01	3.7211571039298062e-05
50	6.2571864320536523e-10	1.0379973356805772e+06	2.3003773015905763e+22	9.3046988583967061e+02	9.4999999999999996e-01		5.8706546164136686e-05	4.6428571428571430e-01	3.8908476000293246e-05
51	6.7968519383545497e-10	1.1275241762595451e+06	2.6206841759536498e+22	9.3047295738055743e+02	9.4999999999999996e-01		6.2003586797990253e-05	4.6428571428571430e-01	4.0665471090266058e-05
52	7.3830622156648592e-10	1.2247727940936259e+06	2.9842512315543877e+22	9.3047616664555994e+02	9.4999999999999996e-01		6.5438869747261224e-05	4.6428571428571430e-01	4.2483967284976434e-05
53	8.0198314798157883e-10	1.3304092160557457e+06	3.3967490627987355e+22	9.3047951853097766e+02	9.4999999999999996e-01		6.9037351376032406e-05	4.6428571428571430e-01	4.4365386524673745e-05
54	8.7115204751602953e-10	1.4451569178673069e+06	3.8645703356377456e+22	9.3048301804369066e+02	9.4999999999999996e-01		7.2783647571002149e-05	4.6428571428571430e-01	4.6311161441269069e-05
55	9.4628656945369298e-10	1.5698017796462749e+06	4.3949192188644284e+22	9.3048667030047989e+02	9.4999999999999996e-01		7.6704663335933074e-05	4.6428571428571430e-01	4.8322735103015354e-05
56	1.0279012541846469e-09	1.7051974689485529e+06	4.9959116068373687e+22	9.3049048052720389e+02	9.4999999999999996e-01		8.0783486456341262e-05	4.6428571428571430e-01	5.0401560778376068e-05
57	1.1165549744987784e-09	1.8522712881835005e+06	5.6766874049876442e+22	9.3049445405785468e+02	9.4999999999999996e-01		8.5049085765129812e-05	4.6428571428571430e-01	5.2549101720710944e-05
58	1.2128548557960656e-09	2.0120305264665724e+06	6.4475362960877193e+22	9.3049859633349774e+02	9.4999999999999996e-01		8.9482910211941539e-05	4.6428571428571430e-01	5.4766830975505593e-05
59	1.3174603284599154e-09	2.1855693594286861e+06	7.3200385684818253e+22	9.3050291290112182e+02	9.4999999999999996e-01		9.4116112113425861e-05	4.6428571428571430e-01	5.7056231211774218e-05
60	1.4310877625397698e-09	2.3740763442570786e+06	8.3072227691591690e+22	9.3050740941241520e+02	9.4999999999999996e-01		9.8928386086915882e-05	4.6428571428571430e-01	5.9418794579414790e-05
61	1.5545152390912267e-09	2.5788425613211752e+06	9.4237421467464144e+22	9.3051209162249052e+02	9.4999999999999996e-01		1.0395319213746917e-04	4.6428571428571430e-01	6.1856022594159181e-05
62	1.6885880301930149e-09	2.8012704581682580e+06	1.0686072074488642e+23	9.3051696538858994e+02	9.4999999999999996e-01		1.0916835027134854e-04	4.6428571428571430e-01	6.4369426051955942e-05
63	1.8342242160445463e-09	3.0428834564870005e+06	1.2112730893627987e+23	9.3052203666879609e+02	9.4999999999999996e-01		1.1460975702591117e-04	4.6428571428571430e-01	6.6960524974429565e-05
64	1.9924211652913650e-09	3.3053363878657059e+06	1.3724526896062626e+23	9.3052731152078138e+02	9.4999999999999996e-01		1.2025323271909069e-04	4.6428571428571430e-01	6.9630848587203025e-05
65	2.1642621468541705e-09	3.5904268298523491e+06	1.5544834474954691e+23	9.3053279610063328e+02	9.4999999999999996e-01		1.2613724399807561e-04	4.6428571428571430e-01	7.2381935332946725e-05
66	2.3509239941223925e-09	3.9001074199933968e+06	1.7599902816462129e+23	9.3053849666178905e+02	9.4999999999999996e-01		1.3223548160405747e-04	4.6428571428571430e-01	7.5215332920841642e-05
67	2.5536848865136937e-09	4.2364992322315332e+06	1.9919200888916477e+23	9.3054441955412324e+02	9.4999999999999996e-01		1.3858912070595218e-04	4.6428571428571430e-01	7.8132598414336276e-05
68	2.7739334149906770e-09	4.6019063073234297e+06	2.2535802911776467e+23	9.3055057122322580e+02	9.4999999999999996e-01		1.4516958775859945e-04	4.6428571428571430e-01	8.1135298358973190e-05
69	3.0131777388731161e-09	4.9988314368484803e+06	2.5486818960358772e+23	9.3055695820991389e+02	9.4999999999999996e-01		1.5202090980708625e-04	4.6428571428571430e-01	8.4225008952194835e-05
70	3.2730563103320540e-09	5.4299933089717710e+06	2.8813875888911625e+23	9.3056358715002330e+02	9.4999999999999996e-01		1.5911210948060852e-04	4.6428571428571430e-01	8.7403316256992169e-05
71	3.5553486477649494e-09	5.8983451334585631e+06	3.2563654339948869e+23	9.3057046477451672e+02	9.4999999999999996e-01		1.6649021411435031e-04	4.6428571428571430e-01	9.0671816461244384e-05
72	3.8619880246063778e-09	6.4070948735771021e+06	3.6788488258352472e+23	9.3057759790995954e+02	9.4999999999999996e-01		1.7412169813488262e-04	4.6428571428571430e-01	9.4032116184711940e-05
73	4.1950741425240270e-09	6.9597272235418241e+06	4.1547034051864571e+23	9.3058499347939710e+02	9.4999999999999996e-01		1.8205674276794965e-04	4.6428571428571430e-01	9.7485832835644489e-05
74	4.5568881464611722e-09	7.5600274821139630e+06	4.6905017343138197e+23	9.3059265850367899e+02	9.4999999999999996e-01		1.9025912501408082e-04	4.6428571428571430e-01	1.0103459501900402e-04
75	4.9499075300628726e-09	8.2121074859758811e+06	5.2936066151510244e+23	9.3060060010326561e+02	2.6099999999999999e+00		1.9878233891528269e-04	4.5161290322580644e-01	1.0468004299822142e-04
76	5.3768239060034834e-09	8.9204337806154881e+06	5.9722640334815096e+23	9.3060882550054953e+02	2.6099999999999999e+00		2.0758730996546529e-04	4.5161290322580644e-01	1.0842382921260425e-04
77	5.8405605336253515e-09	9.6898582217967734e+06	6.7357068224028315e+23	9.3061734202272658e+02	2.6099999999999999e+00		2.1673100942577747e-04	4.5161290322580644e-01	1.1226761885261622e-04
78	6.3442933532931322e-09	1.0525651217356699e+07	7.5942702608261268e+23	9.3062615710523346e+02	2.6099999999999999e+00		2.2617135233168206e-04	4.5161290322580644e-01	1.1621309049483672e-04
79	6.8914715936401558e-09	1.1433537837170094e+07	8.5595209588283828e+23	9.3063527829578015e+02	2.6099999999999999e+00		2.3596895721052688e-04	4.5161290322580644e-01	1.2026193679915559e-04
80	7.4858426732960235e-09	1.2419737038790302e+07	9.6444005328304970e+23	9.3064471325898285e+02	2.6099999999999999e+00		2.4607856479736924e-04	4.5161290322580644e-01	1.2441586527020424e-04
81	8.1314764240404558e-09	1.3491004277635597e+07	1.0863385741468598e+24	9.3065446978160594e+02	2.6099999999999999e+00		2.5656461676089570e-04	4.5161290322580644e-01	1.2867659908528034e-04
82	8.8327945755880914e-09	1.4654677793798871e+07	1.2232666939533897e+24	9.3066455577841111e+02	2.6099999999999999e+00		2.6737851077849418e-04	4.5161290322580644e-01	1.3304587799134037e-04
83	9.5945992232684737e-09	1.5918728892768981e+07	1.3770346914503892e+24	9.3067497929860201e+02	2.6099999999999999e+00		2.7858869356629546e-04	4.5161290322580644e-01	1.3752545927325484e-04
84	1.0422107744973894e-08	1.7291816564739641e+07	1.5496662400269791e+24	9.3068574853284463e+02	2.6099999999999999e+00		2.9014304603834526e-04	4.5161290322580644e-01	1.4211711879575203e-04
85	1.1320986249952774e-08	1.8783346816934243e+07	1.7434230818202682e+24	9.3069687182083601e+02	2.6099999999999999e+00		3.0211420811939994e-04	4.5161290322580644e-01	1.4682265212194521e-04
86	1.2297390935525258e-08	2.0403537125695571e+07	1.9608325079524154e+24	9.3070835765938193e+02	2.6099999999999999e+00		3.1444636526330887e-04	4.5161290322580644e-01	1.5164387571058719e-04
87	1.3358007379792595e-08	2.2163486450202744e+07	2.2047179598124360e+24	9.3072021471093672e+02	2.6099999999999999e+00		3.2721654526742238e-04	4.5161290322580644e-01	1.5658262819507295e-04
88	1.4510099534056729e-08	2.4075251287819114e+07	2.4782331013066427e+24	9.3073245181254595e+02	2.6099999999999999e+00		3.4036505438317561e-04	4.5161290322580644e-01	1.6164077174699466e-04
89	1.5761555869724364e-08	2.6151928292514585e+07	2.7848997508743969e+24	9.3074507798512832e+02	2.6099999999999999e+00		3.5397350972111926e-04	4.5161290322580644e-01	1.6682019352673861e-04
90	1.7120947426196206e-08	2.8407744022819821e+07	3.1286501052448940e+24	9.3075810244301817e+02	2.6099999999999999e+00		3.6797814947517581e-04	4.5161290322580644e-01	1.7212280722468773e-04
91	1.8597581994478825e-08	3.0858152434672307e+07	3.5138737348576555e+24	9.3077153460368459e+02	2.6099999999999999e+00		3.8246538858911636e-04	4.5161290322580644e-01	1.7755055469554054e-04
92	2.0201572906388993e-08	3.3519940787641559e+07	3.9454698841215987e+24	9.3078538409753617e+02	2.6099999999999999e+00		3.9736720314850754e-04	4.5161290322580644e-01	1.8310540768918930e-04
93	2.1943902638428753e-08	3.6411344690730207e+07	4.4289056688268357e+24	9.3079966077770973e+02	2.6099999999999999e+00		4.1277502186446742e-04	4.5161290322580644e-01	1.8878936968156842e-04
94	2.3836504344529987e-08	3.9552173076648079e+07	4.9702808287050529e+24	9.3081437472973778e+02	2.6099999999999999e+00		4.2861635936726369e-04	4.5161290322580644e-01	1.9460447780847673e-04
95	2.5892336498284561e-08	4.2963943961565062e+07	5.5763997660768177e+24	9.3082953628098426e+02	2.6099999999999999e+00		4.4498788185338517e-04	4.5161290322580644e-01	2.0055280490621991e-04
96	2.8125479547735836e-08	4.6670031921341993e+07	6.2548516825454960e+24	9.3084515600973111e+02	2.6099999999999999e+00		4.6181243773470610e-04	4.5161290322580644e-01	2.0663646166273306e-04
97	3.0551223487502787e-08	5.0695828295621470e+07	7.0140997156747650e+24	9.3086124475379938e+02	2.6099999999999999e+00		4.7919216260327999e-04	4.5161290322580644e-01	2.1285759888242119e-04
98	3.3186182461757333e-08	5.5068915218484595e+07	7.8635800775331195e+24	9.3087781361858572e+02	2.6099999999999999e+00		4.9704502833123004e-04	4.5161290322580644e-01	2.1921840986944879e-04
99	3.6048397476392536e-08	5.9819254669245467e+07	8.8138123080038237e+24	9.3089487398439303e+02	2.6099999999999999e+00		5.1547888045893491e-04	4.5161290322580644e-01	2.2572113293277320e-04
100	3.9157472308972376e-08	6.4979393840011880e+07	9.8765218790618415e+24	9.3091243751294110e+02	2.6099999999999999e+00		5.3440659827242798e-04	4.5161290322580644e-01	2.3236805401728267e-04
101	4.2534693942073268e-08	7.0584688228603154e+07	1.1064776523209502e+25	9.3093051615294087e+02	2.6099999999999999e+00		5.5394198695223648e-04	4.5161290322580644e-01	2.3916150946552022e-04
102	4.6203193772970099e-08	7.6673543987036481e+07	1.2393137811420587e+25	9.3094912214462602e+02	2.6099999999999999e+00		5.7399261123290061e-04	4.5161290322580644e-01	2.4610388891416635e-04
