# link: https://git.ligo.org/extreme-matter/eos-models-in-lal-and-bilby/eos_tables/-/blob/main/Modified_tables/eos_Crust_BsK24_nbmin_1e-11_core_SLY230a_modified.d
# SHA: 2e3690ed9867cb3bc16a62a46657112b7a8a42bd
#
# Model Crust_BsK24_nbmin_1e-11_core_SLY230a
# Model computed at temperature 0.0  MeV
#
#1106	number of points
#
#  n_B [1/fm^3]   eps[g/cm^3]   P[dyn/cm^2] mu_B [MeV] mu_e [MeV] log-enthalpy H [dimensionless] Y_e+Y_mu[dimensionless] cs2[speed of sound squared]
#
0	9.9982550831971961e-12	1.6586122468902155e+04	1.6736726261730990e+19	9.3041428045287444e+02	9.4999999999999996e-01		1.0000000000000000e-10	4.6428571428571430e-01	2.2730832235444051e-06
1	1.0850655251136522e-11	1.8000172290968319e+04	1.9625552726356320e+19	9.3041447352555531e+02	9.4999999999999996e-01		1.8627958359943232e-07	4.6428571428571430e-01	2.3545385975494239e-06
2	1.1775726718254507e-11	1.9534777087044877e+04	2.2994936527220417e+19	9.3041468005774618e+02	9.4999999999999996e-01		3.8573521544727672e-07	4.6428571428571430e-01	2.5295388884152627e-06
3	1.2779665054299734e-11	2.1200214809263947e+04	2.6921879439623262e+19	9.3041490085092107e+02	9.4999999999999996e-01		6.0061794351977922e-07	4.6428571428571430e-01	2.7155258706926236e-06
4	1.3869194064283333e-11	2.3007639663412236e+04	3.1495262786737668e+19	9.3041513674492512e+02	9.4999999999999996e-01		8.3048572582233466e-07	4.6428571428571430e-01	2.9130462505315104e-06
5	1.5051610752721809e-11	2.4969156815040533e+04	3.6817611561959236e+19	9.3041538861931269e+02	9.4999999999999996e-01		1.0777643325114733e-06	4.6428571428571430e-01	3.1226652718204646e-06
6	1.6334834273415306e-11	2.7097903464808496e+04	4.3007110709614297e+19	9.3041565739470968e+02	9.4999999999999996e-01		1.3419081559786251e-06	4.6428571428571430e-01	3.3449669085050417e-06
7	1.7727458875892150e-11	2.9408136836099537e+04	5.0199908265813819e+19	9.3041594403421050e+02	9.4999999999999996e-01		1.6256460323842771e-06	4.6428571428571430e-01	3.5805540401282232e-06
8	1.9238811570533273e-11	3.1915329664237484e+04	5.8552744662232564e+19	9.3041624954480028e+02	9.4999999999999996e-01		1.9283116960306714e-06	4.6428571428571430e-01	3.8300486101159483e-06
9	2.0879014472645105e-11	3.4636273826887511e+04	6.8245952684929745e+19	9.3041657497881408e+02	9.4999999999999996e-01		2.2529675500245187e-06	4.6428571428571430e-01	4.0940917663764785e-06
10	2.2659052736474666e-11	3.7589192809751221e+04	7.9486878430784864e+19	9.3041692143542093e+02	9.4999999999999996e-01		2.5988075804687154e-06	4.6428571428571430e-01	4.3733439838290429e-06
11	2.4590847962868732e-11	4.0793863760851586e+04	9.2513780197011177e+19	9.3041729006214427e+02	9.4999999999999996e-01		2.9692605098618136e-06	4.6428571428571430e-01	4.6684851685259971e-06
12	2.6687338233158254e-11	4.4271749950927646e+04	1.0760026966573982e+20	9.3041768205641097e+02	9.4999999999999996e-01		3.3633593474432658e-06	4.6428571428571430e-01	4.9802147430818403e-06
13	2.8962564541116860e-11	4.8046144527166769e+04	1.2506036810764606e+20	9.3041809866713265e+02	9.4999999999999996e-01		3.7849342328703378e-06	4.6428571428571430e-01	5.3092517131692116e-06
14	3.1431765084808385e-11	5.2142326523145035e+04	1.4525425974016480e+20	9.3041854119631967e+02	9.4999999999999996e-01		4.2328336893070275e-06	4.6428571428571430e-01	5.6563347149018977e-06
15	3.4111477030306410e-11	5.6587730169948889e+04	1.6859483496446270e+20	9.3041901100072312e+02	9.4999999999999996e-01		4.7113268096878664e-06	4.6428571428571430e-01	6.0222220429693664e-06
16	3.7019647605324913e-11	6.1412128642547097e+04	1.9555512811351789e+20	9.3041950949351144e+02	9.4999999999999996e-01		5.2190516990078968e-06	4.6428571428571430e-01	6.4076916594513906e-06
17	4.0175753910040853e-11	6.6647833472176644e+04	2.2667676773081576e+20	9.3042003814597388e+02	9.4999999999999996e-01		5.7607564699875281e-06	4.6428571428571430e-01	6.8135411832855298e-06
18	4.3600933811207915e-11	7.2329910960451700e+04	2.6257957244305103e+20	9.3042059848925237e+02	9.4999999999999996e-01		6.3348403125544851e-06	4.6428571428571430e-01	7.2405878604276900e-06
19	4.7318126995162540e-11	7.8496417044786096e+04	3.0397244238999677e+20	9.3042119211610373e+02	9.4999999999999996e-01		6.9465730469731523e-06	4.6428571428571430e-01	7.6896685147929856e-06
20	5.1352229197605658e-11	8.5188652188327775e+04	3.5166571515174827e+20	9.3042182068268687e+02	9.4999999999999996e-01		7.5940837456371895e-06	4.6428571428571430e-01	8.1616394801233161e-06
21	5.5730258258066378e-11	9.2451438001737057e+04	4.0658517641643216e+20	9.3042248591037139e+02	9.4999999999999996e-01		8.2832093348760056e-06	4.6428571428571430e-01	8.6573765129981155e-06
22	6.0481535853334288e-11	1.0033341744972614e+05	4.6978793953597496e+20	9.3042318958757267e+02	9.4999999999999996e-01		9.0117747226535158e-06	4.6428571428571430e-01	9.1777746872298354e-06
23	6.5637882976102796e-11	1.0888738065325918e+05	5.4248043493247366e+20	9.3042393357160256e+02	9.4999999999999996e-01		9.7862321386744897e-06	4.6428571428571430e-01	9.7237482699779836e-06
24	7.1233834086505914e-11	1.1817061846978606e+05	6.2603878038779147e+20	9.3042471979053937e+02	9.4999999999999996e-01		1.0604065298916883e-05	4.6428571428571430e-01	1.0296230579953749e-05
25	7.7306867217730245e-11	1.2824530621996064e+05	7.2203183695679822e+20	9.3042555024510943e+02	9.4999999999999996e-01		1.1472392818974341e-05	4.6428571428571430e-01	1.0896173828145646e-05
26	8.3897656340784589e-11	1.3917892013125721e+05	8.3224729301973113e+20	9.3042642701057855e+02	9.4999999999999996e-01		1.2388317081723529e-05	4.6428571428571430e-01	1.1524548941551164e-05
27	9.1050342216945320e-11	1.5104468928806102e+05	9.5872116130642566e+20	9.3042735223864929e+02	9.4999999999999996e-01		1.3359677141079432e-05	4.6428571428571430e-01	1.2182345370453536e-05
28	9.8812829809996676e-11	1.6392208611568622e+05	1.1037711211186073e+21	9.3042832815936026e+02	9.4999999999999996e-01		1.4383150663241712e-05	4.6428571428571430e-01	1.2870570879854108e-05
29	1.0723710708338269e-10	1.7789735868391741e+05	1.2700341910359219e+21	9.3042935708297875e+02	9.4999999999999996e-01		1.5467354245744964e-05	4.6428571428571430e-01	1.3590251325684646e-05
30	1.1637959552036328e-10	1.9306410839583236e+05	1.4605092767778336e+21	9.3043044140188681e+02	9.4999999999999996e-01		1.6608494087802001e-05	4.6428571428571430e-01	1.4342430416524734e-05
31	1.2630152533075526e-10	2.0952391693172950e+05	1.6786052053423877e+21	9.3043158359245047e+02	9.4999999999999996e-01		1.7816024569879294e-05	4.6428571428571430e-01	1.5128169461554315e-05
32	1.3706934858661528e-10	2.2738702664794779e+05	1.9281949308686364e+21	9.3043278621686932e+02	9.4999999999999996e-01		1.9085630188085842e-05	4.6428571428571430e-01	1.5948547105567925e-05
33	1.4875518079238701e-10	2.4677307898850885e+05	2.2136766807894943e+21	9.3043405192499688e+02	9.4999999999999996e-01		2.0427666558494272e-05	4.6428571428571430e-01	1.6804659051874649e-05
34	1.6143728785187576e-10	2.6781191585616738e+05	2.5400429037590948e+21	9.3043538345612717e+02	9.4999999999999996e-01		2.1837242638838649e-05	4.6428571428571430e-01	1.7697617773980866e-05
35	1.7520060570510701e-10	2.9064444931125746e+05	2.9129579846946841e+21	9.3043678364073844e+02	9.4999999999999996e-01		2.3325682024413709e-05	4.6428571428571430e-01	1.8628552217028227e-05
36	1.9013731435883226e-10	3.1542360542452690e+05	3.3388458083081813e+21	9.3043825540218859e+02	9.4999999999999996e-01		2.4887460592982768e-05	4.6428571428571430e-01	1.9598607489931458e-05
37	2.0634744934871480e-10	3.4231534860693762e+05	3.8249883821245181e+21	9.3043980175835065e+02	9.4999999999999996e-01		2.6534940029506835e-05	4.6428571428571430e-01	2.0608944549276755e-05
38	2.2393957844637233e-10	3.7149979327862471e+05	4.3796368747366926e+21	9.3044142582318602e+02	9.4999999999999996e-01		2.8261901783264845e-05	4.6428571428571430e-01	2.1660739876008258e-05
39	2.4303152111970775e-10	4.0317241032438504e+05	5.0121365866620775e+21	9.3044313080823940e+02	9.4999999999999996e-01		3.0081819180451695e-05	4.6428571428571430e-01	2.2755185146055329e-05
40	2.6375114634078525e-10	4.3754533641810954e+05	5.7330675515599513e+21	9.3044492002405627e+02	9.4999999999999996e-01		3.1987713992720481e-05	4.6428571428571430e-01	2.3893486896013643e-05
41	2.8623721905240304e-10	4.7484879498784977e+05	6.5544026668740096e+21	9.3044679688150359e+02	9.4999999999999996e-01		3.3994248253053944e-05	4.6428571428571430e-01	2.5076866185056300e-05
42	3.1064034082119807e-10	5.1533263834120973e+05	7.4896854775583348e+21	9.3044876489299850e+02	9.4999999999999996e-01		3.6093614819132503e-05	4.6428571428571430e-01	2.6306558254305388e-05
43	3.3712394564782171e-10	5.5926802128255891e+05	8.5542299870519016e+21	9.3045082767362248e+02	9.4999999999999996e-01		3.8301745081883227e-05	4.6428571428571430e-01	2.7583812184879596e-05
44	3.6586540913125369e-10	6.0694921743465145e+05	9.7653451490272477e+21	9.3045298894212533e+02	9.4999999999999996e-01		4.0609929682167998e-05	4.6428571428571430e-01	2.8909890555939516e-05
45	3.9705721986851612e-10	6.5869559043336089e+05	1.1142587004896433e+22	9.3045525252180391e+02	9.4999999999999996e-01		4.3035453676232951e-05	4.6428571428571430e-01	3.0286069103960009e-05
46	4.3090828742891503e-10	7.1485373320204671e+05	1.2708041779222654e+22	9.3045762234125243e+02	9.4999999999999996e-01		4.5568628046852475e-05	4.6428571428571430e-01	3.1713636384625606e-05
47	4.6764532017704464e-10	7.7579978963825747e+05	1.4486643632096496e+22	9.3046010243497562e+02	9.4999999999999996e-01		4.8228179549078418e-05	4.6428571428571430e-01	3.3193893438674841e-05
48	5.0751436782939832e-10	8.4194197426783782e+05	1.6506531198600772e+22	9.3046269694386069e+02	9.4999999999999996e-01		5.1003357863334980e-05	4.6428571428571430e-01	3.4728153463036397e-05
49	5.5078244191849545e-10	9.1372330674797494e+05	1.8799447525716784e+22	9.3046541011550505e+02	9.4999999999999996e-01		5.3914423272598800e-05	4.6428571428571430e-01	3.6317741488732676e-05
50	5.9773933517262027e-10	9.9162457954048249e+05	2.1401188551857621e+22	9.3046824630439085e+02	9.4999999999999996e-01		5.6949478250376719e-05	4.6428571428571430e-01	3.7963994066908828e-05
51	6.4869952715613777e-10	1.0761675786390421e+06	2.4352105869787573e+22	9.3047120997191382e+02	9.4999999999999996e-01		6.0130412301849944e-05	4.6428571428571430e-01	3.9668258964433394e-05
52	7.0400433035808122e-10	1.1679185789299374e+06	2.7697670176749637e+22	9.3047430568625509e+02	9.4999999999999996e-01		6.3444090478519531e-05	4.6428571428571430e-01	4.1431894870541197e-05
53	7.6402413095430443e-10	1.2674921376060885e+06	3.1489102553711173e+22	9.3047753812210692e+02	9.4999999999999996e-01		6.6914131137191075e-05	4.6428571428571430e-01	4.3256271116020944e-05
54	8.2916092052764199e-10	1.3755552110516422e+06	3.5784081537072273e+22	9.3048091206024799e+02	9.4999999999999996e-01		7.0526067338347296e-05	4.6428571428571430e-01	4.5142767406365500e-05
55	8.9985093058880014e-10	1.4928316227820390e+06	4.0647534860222595e+22	9.3048443238697928e+02	9.4999999999999996e-01		7.4305349925929949e-05	4.6428571428571430e-01	4.7092773570437811e-05
56	9.7656761953524693e-10	1.6201069123770422e+06	4.6152525759273291e+22	9.3048810409342252e+02	9.4999999999999996e-01		7.8236081009532566e-05	4.6428571428571430e-01	4.9107689326187794e-05
57	1.0598247697586489e-09	1.7582335978976137e+06	5.2381244868492156e+22	9.3049193227469630e+02	9.4999999999999996e-01		8.2345651634304173e-05	4.6428571428571430e-01	5.1188924064923076e-05
58	1.1501800120839400e-09	1.9081368870483767e+06	5.9426119989095878e+22	9.3049592212897721e+02	9.4999999999999996e-01		8.6616629577335047e-05	4.6428571428571430e-01	5.3337896655679780e-05
59	1.2482384662376095e-09	2.0708208753550199e+06	6.7391057414123963e+22	9.3050007895646422e+02	9.4999999999999996e-01		9.1078457952255108e-05	4.6428571428571430e-01	5.5556035271233940e-05
60	1.3546568999509542e-09	2.2473752728898339e+06	7.6392830047692857e+22	9.3050440815826164e+02	9.4999999999999996e-01		9.5712062374914527e-05	4.6428571428571430e-01	5.7844777237417883e-05
61	1.4701480075647205e-09	2.4389827046209387e+06	8.6562629286289182e+22	9.3050891523520090e+02	9.4999999999999996e-01		1.0054905412539385e-04	4.6428571428571430e-01	6.0205568907210699e-05
62	1.5954853186562388e-09	2.6469266333054407e+06	9.8047799551945003e+22	9.3051360578662718e+02	9.4999999999999996e-01		1.0556860436201343e-04	4.6428571428571430e-01	6.2639865561238129e-05
63	1.7315082259609748e-09	2.8725999580190005e+06	1.1101377650357362e+23	9.3051848550917089e+02	9.4999999999999996e-01		1.1080461294111550e-04	4.6428571428571430e-01	6.5149131336348449e-05
64	1.8791277792957140e-09	3.1175143459429019e+06	1.2564625232672894e+23	9.3052356019553702e+02	9.4999999999999996e-01		1.1623437978345001e-04	4.6428571428571430e-01	6.7734839183787305e-05
65	2.0393325931940731e-09	3.3833103599445075e+06	1.4215359413992924e+23	9.3052883573334043e+02	9.4999999999999996e-01		1.2189421812890885e-04	4.6428571428571430e-01	7.0398470858708034e-05
66	2.2131956866447166e-09	3.6717684498206712e+06	1.6076954448622997e+23	9.3053431810402162e+02	9.4999999999999996e-01		1.2775943538420161e-04	4.6428571428571430e-01	7.3141516942573095e-05
67	2.4018814233413830e-09	3.9848208808630607e+06	1.8175623613414050e+23	9.3054001338187675e+02	9.4999999999999996e-01		1.3386888746860383e-04	4.6428571428571430e-01	7.5965476900174728e-05
68	2.6066535870443736e-09	4.3245646796870483e+06	2.0540755702790548e+23	9.3054592773323918e+02	9.4999999999999996e-01		1.4019576349186906e-04	4.6428571428571430e-01	7.8871859172965680e-05
69	2.8288835336912203e-09	4.6932756840847395e+06	2.3205290524291766e+23	9.3055206741585209e+02	9.4999999999999996e-01		1.4678159593455790e-04	4.6428571428571430e-01	8.1862181310326328e-05
70	3.0700597268619843e-09	5.0934237910636570e+06	2.6206137826160079e+23	9.3055843877847008e+02	9.4999999999999996e-01		1.5359732531187989e-04	4.6428571428571430e-01	8.4937970140582658e-05
71	3.3317973118308719e-09	5.5276895052642319e+06	2.9584644583687203e+23	9.3056504826072921e+02	9.4999999999999996e-01		1.6068729923874805e-04	4.6428571428571430e-01	8.8100761983430807e-05
72	3.6158493766683847e-09	5.9989818986669695e+06	3.3387116120808808e+23	9.3057190239332829e+02	9.4999999999999996e-01		1.6802007481613298e-04	4.6428571428571430e-01	9.1352102905550511e-05
73	3.9241181943904909e-09	6.5104581019614451e+06	3.7665397153810608e+23	9.3057900779855754e+02	9.4999999999999996e-01		1.7564295817141178e-04	4.6428571428571430e-01	9.4693549021284947e-05
74	4.2586685238475588e-09	7.0655444582171123e+06	4.2477519521555065e+23	9.3058637119121602e+02	9.4999999999999996e-01		1.8352198364183424e-04	4.6428571428571430e-01	9.8126666840012708e-05
75	4.6217408083234404e-09	7.6679594806411415e+06	4.7888424118714584e+23	9.3059399937994988e+02	9.4999999999999996e-01		1.9170756417440191e-04	4.6428571428571430e-01	1.0165303366223532e-04
76	5.0157668879469728e-09	8.3217387683036365e+06	5.3970765383275305e+23	9.3060189926905241e+02	2.6099999999999999e+00		2.0016306745431614e-04	4.5161290322580644e-01	1.0527423802615107e-04
77	5.4433854924305794e-09	9.0312620468381401e+06	6.0805807615966790e+23	9.3061007786074958e+02	2.6099999999999999e+00		2.0894216661993510e-04	4.5161290322580644e-01	1.0899188020665085e-04
78	5.9074608049637016e-09	9.8012825153736975e+06	6.8484423437460989e+23	9.3061854225800153e+02	2.6099999999999999e+00		2.1800541426563236e-04	4.5161290322580644e-01	1.1280757276871243e-04
79	6.4111006444468927e-09	1.0636958696417497e+07	7.7108205830025326e+23	9.3062729966784275e+02	2.6099999999999999e+00		2.2740990230605139e-04	4.5161290322580644e-01	1.1672294117699711e-04
80	6.9576784016696353e-09	1.1543889002191162e+07	8.6790706476359511e+23	9.3063635740527525e+02	2.6099999999999999e+00		2.3711321524004923e-04	4.5161290322580644e-01	1.2073962446405503e-04
81	7.5508543737723519e-09	1.2528149249138935e+07	9.7658814513062874e+23	9.3064572289772957e+02	2.6099999999999999e+00		2.4717602772003676e-04	4.5161290322580644e-01	1.2485927595873270e-04
82	8.1946016893284308e-09	1.3596333372095684e+07	1.0985429137466709e+24	9.3065540369009238e+02	2.6099999999999999e+00		2.5755279855813967e-04	4.5161290322580644e-01	1.2908356407724395e-04
83	8.8932313364574924e-09	1.4755597611060927e+07	1.2353547913351252e+24	9.3066540745030250e+02	2.6099999999999999e+00		2.6830795466249594e-04	4.5161290322580644e-01	1.3341417317905909e-04
84	9.6514228070204761e-09	1.6013708466811916e+07	1.3887920165900227e+24	9.3067574197550289e+02	2.6099999999999999e+00		2.7939266695350560e-04	4.5161290322580644e-01	1.3785280448956085e-04
85	1.0474253451674848e-08	1.7379094746866457e+07	1.5608288004821047e+24	9.3068641519872949e+02	2.6099999999999999e+00		2.9087528986791961e-04	4.5161290322580644e-01	1.4240117709217015e-04
86	1.1367234708077482e-08	1.8860904050738469e+07	1.7536688614081647e+24	9.3069743519610859e+02	2.6099999999999999e+00		3.0270353958026678e-04	4.5161290322580644e-01	1.4706102899190760e-04
87	1.2336346523376711e-08	2.0469064073204067e+07	1.9697716055054467e+24	9.3070881019452941e+02	2.6099999999999999e+00		3.1494987930273270e-04	4.5161290322580644e-01	1.5183411825323066e-04
88	1.3388080191054059e-08	2.2214349136613023e+07	2.2118812455097919e+24	9.3072054857974558e+02	2.6099999999999999e+00		3.2755839891562816e-04	4.5161290322580644e-01	1.5672222421412446e-04
89	1.4529478706391477e-08	2.4108452398352701e+07	2.4830591837643731e+24	9.3073265890484959e+02	2.6099999999999999e+00		3.4060585786920645e-04	4.5161290322580644e-01	1.6172714877948284e-04
90	1.5768187426070913e-08	2.6164064217641782e+07	2.7867200207446520e+24	9.3074514989906379e+02	2.6099999999999999e+00		3.5403254345051804e-04	4.5161290322580644e-01	1.6685071779644648e-04
91	1.7112501367935087e-08	2.8394957207147118e+07	3.1266715901211011e+24	9.3075803047677175e+02	2.6099999999999999e+00		3.6791970529345084e-04	4.5161290322580644e-01	1.7209478251393247e-04
92	1.8571425132297336e-08	3.0816078539761007e+07	3.5071594653807841e+24	9.3077130974671411e+02	2.6099999999999999e+00		3.8220364697249756e-04	4.5161290322580644e-01	1.7746122112977537e-04
93	2.0154728327181756e-08	3.3443650129550118e+07	3.9329164318299622e+24	9.3078499702126385e+02	2.6099999999999999e+00		3.9697030902864210e-04	4.5161290322580644e-01	1.8295194042804608e-04
94	2.1873016457128781e-08	3.6295277358710371e+07	4.4092174719388901e+24	9.3079910182568688e+02	2.6099999999999999e+00		4.1215182529957860e-04	4.5161290322580644e-01	1.8856887750997513e-04
95	2.3737795852926607e-08	3.9390067079700634e+07	4.9419408720452980e+24	9.3081363390729257e+02	2.6099999999999999e+00		4.2783903506040386e-04	4.5161290322580644e-01	1.9431400162109932e-04
96	2.5761557550450327e-08	4.2748755683958605e+07	5.5376361250522700e+24	9.3082860324436706e+02	2.6099999999999999e+00		4.4395971138123008e-04	4.5161290322580644e-01	2.0018931607814481e-04
97	2.7957853334151074e-08	4.6393848096141167e+07	6.2035993776652233e+24	9.3084402005478751e+02	2.6099999999999999e+00		4.6060980756107911e-04	4.5161290322580644e-01	2.0619686029924565e-04
98	3.0341395004567774e-08	5.0349768626143262e+07	6.9479572527014250e+24	9.3085989480420585e+02	2.6099999999999999e+00		4.7771253974438610e-04	4.5161290322580644e-01	2.1233871194053264e-04
99	3.2928143412667191e-08	5.4643024690712944e+07	7.7797599679664480e+24	9.3087623821368970e+02	2.6099999999999999e+00		4.9536919840283003e-04	4.5161290322580644e-01	2.1861698914294912e-04
100	3.5735425961351308e-08	5.9302384502837881e+07	8.7090847741106493e+24	9.3089306126671408e+02	2.6099999999999999e+00		5.1349824132776618e-04	4.5161290322580644e-01	2.2503385289289143e-04
101	3.8782040819065556e-08	6.4359069920812182e+07	9.7471508458447632e+24	9.3091037521539386e+02	2.6099999999999999e+00		5.3220652760748778e-04	4.5161290322580644e-01	2.3159150950050565e-04
102	4.2088396031270292e-08	6.9846965750617549e+07	1.0906446885128293e+25	9.3092819158584950e+02	2.6099999999999999e+00		5.5140754981786459e-04	4.5161290322580644e-01	2.3829221319986063e-04
