# link: https://git.ligo.org/extreme-matter/eos-models-in-lal-and-bilby/eos_tables/-/blob/main/Modified_tables/eos_Crust_metaModel_nbmin_1e-11_core_ABHT_QMC-RMF2.d
# SHA: f293a0ddd105a00b4aeb3e48110d9610e4bbddc5
#
# Model eos_Crust_metaModel_nbmin_1e-11_core_ABHT_QMC-RMF2.d
# Model Computed at temperature 0.0 MeV
#1931 	 number of points
#
# n_B [1/fm^3] 	 eps[g/cm^3] 	 P[dyn/cm^2] 	 mu_B [MeV] 	 mu_e [MeV] 	 log-enthalpy H [dimensionless] 	 Y_e+Y_mu[dimensionless] 	 cs2[speed of sound squared]
0 	 9.9999296661214068e-12 	 1.6585101259999999e+04 	 2.0207788333768753e+19 	 9.3035721149999995e+02 	 5.2073050954000000e-01 	 1.0000000000000000e-10 	 4.4222368844999999e-01 	 2.4229977282101079e-06
1 	 1.0199928259491418e-11 	 1.6916803743000000e+04 	 2.0930130779516064e+19 	 9.3035725614000000e+02 	 5.2085860104000004e-01 	 4.8084857004538834e-08 	 4.4222302832999999e-01 	 2.4407012754759189e-06
2 	 1.0403926824809340e-11 	 1.7255140292000000e+04 	 2.1677794426933441e+19 	 9.3035730143000001e+02 	 5.2098836240000002e-01 	 9.6769258425001488e-08 	 4.4222235901000001e-01 	 2.4767017826786083e-06
3 	 1.0612005361398186e-11 	 1.7600243589000002e+04 	 2.2451653143211487e+19 	 9.3035734739999998e+02 	 5.2111981496000004e-01 	 1.4618011268189947e-07 	 4.4222168033999998e-01 	 2.5131889818013801e-06
4 	 1.0824245468536665e-11 	 1.7952248969000000e+04 	 2.3252610679339389e+19 	 9.3035739404000003e+02 	 5.2125298033000000e-01 	 1.9630953780507764e-07 	 4.4222099220000000e-01 	 2.5501690311554133e-06
5 	 1.1040730377880785e-11 	 1.8311294474999999e+04 	 2.4081601432740962e+19 	 9.3035744136999995e+02 	 5.2138788039999995e-01 	 2.4718518924214903e-07 	 4.4222029447000000e-01 	 2.5876481008334245e-06
6 	 1.1261544985581341e-11 	 1.8677520909999999e+04 	 2.4939591690563772e+19 	 9.3035748938999996e+02 	 5.2152453730000004e-01 	 2.9879891972535592e-07 	 4.4221958703000003e-01 	 2.6256324851960762e-06
7 	 1.1486775885256207e-11 	 1.9051071893000000e+04 	 2.5827580510876246e+19 	 9.3035753811999996e+02 	 5.2166297345000001e-01 	 3.5117915037829888e-07 	 4.4221886977000002e-01 	 2.6641284336476149e-06
8 	 1.1716511402573527e-11 	 1.9432093915000001e+04 	 2.6746600941924094e+19 	 9.3035758755999996e+02 	 5.2180321154999998e-01 	 4.0431745799176737e-07 	 4.4221814251000002e-01 	 2.7031425054237324e-06
9 	 1.1950841630579910e-11 	 1.9820736399000001e+04 	 2.7697721209343218e+19 	 9.3035763772999996e+02 	 5.2194527454999995e-01 	 4.5824305413311231e-07 	 4.4221740517000002e-01 	 2.7426811325785233e-06
10 	 1.2189858463738308e-11 	 2.0217151754999999e+04 	 2.8682045706304840e+19 	 9.3035768862999998e+02 	 5.2208918570999996e-01 	 5.1294723291717491e-07 	 4.4221665757000000e-01 	 2.7827507917398220e-06
11 	 1.2433655632593523e-11 	 2.0621495438999998e+04 	 2.9700716369785262e+19 	 9.3035774027000002e+02 	 5.2223496854999996e-01 	 5.6846000654130542e-07 	 4.4221589959000002e-01 	 2.8233582596022585e-06
12 	 1.2682328745710027e-11 	 2.1033926020999999e+04 	 3.0754913951091900e+19 	 9.3035779265999997e+02 	 5.2238264690000002e-01 	 6.2477238615812128e-07 	 4.4221513114000000e-01 	 2.8645102073276786e-06
13 	 1.2935975320052914e-11 	 2.1454605237000000e+04 	 3.1845859163021804e+19 	 9.3035784581999997e+02 	 5.2253224486000005e-01 	 6.8191520704731059e-07 	 4.4221435204999998e-01 	 2.9062132367007465e-06
14 	 1.3194694826609362e-11 	 2.1883698063000000e+04 	 3.2974814064142217e+19 	 9.3035789976000001e+02 	 5.2268378682000005e-01 	 7.3987917548332457e-07 	 4.4221356214000002e-01 	 2.9484743499238824e-06
15 	 1.3458588723113012e-11 	 2.2321372770999998e+04 	 3.4143083651354182e+19 	 9.3035795446999998e+02 	 5.2283729749999996e-01 	 7.9869597819363035e-07 	 4.4221276134999998e-01 	 2.9913005762129051e-06
16 	 1.3727760497927091e-11 	 2.2767800999999999e+04 	 3.5352017034288005e+19 	 9.3035800998000002e+02 	 5.2299280186999997e-01 	 8.5835601809993975e-07 	 4.4221194944999997e-01 	 3.0346987678151678e-06
17 	 1.4002315707519262e-11 	 2.3223157820000000e+04 	 3.6603008981403705e+19 	 9.3035806630000002e+02 	 5.2315032523000005e-01 	 9.1889184234615309e-07 	 4.4221112636999999e-01 	 3.0786760534729012e-06
18 	 1.4282362021626045e-11 	 2.3687621804999999e+04 	 3.7897501536587252e+19 	 9.3035812342999998e+02 	 5.2330989319999999e-01 	 9.8029353960907590e-07 	 4.4221029192000000e-01 	 3.1232395928155280e-06
19 	 1.4568009262458371e-11 	 2.4161375100000001e+04 	 3.9236985469120397e+19 	 9.3035818138000002e+02 	 5.2347153168000005e-01 	 1.0425945453511009e-06 	 4.4220944594000000e-01 	 3.1683966762428251e-06
20 	 1.4859369447534805e-11 	 2.4644603490000001e+04 	 4.0623002064914162e+19 	 9.3035824018000005e+02 	 5.2363526689999995e-01 	 1.1057846241622019e-06 	 4.4220858835999999e-01 	 3.2141545495019668e-06
21 	 1.5156556836641848e-11 	 2.5137496480000002e+04 	 4.2057144546037342e+19 	 9.3035829981999996e+02 	 5.2380112539000001e-01 	 1.1698981190129620e-06 	 4.4220771894999999e-01 	 3.2605205869626837e-06
22 	 1.5459687973547451e-11 	 2.5640247361999998e+04 	 4.3541060121502589e+19 	 9.3035836031999997e+02 	 5.2396913402000000e-01 	 1.2349244582880469e-06 	 4.4220683751000001e-01 	 3.3075023999080668e-06
23 	 1.5768881732872010e-11 	 2.6153053295000002e+04 	 4.5076451591045226e+19 	 9.3035842170000001e+02 	 5.2413931995999996e-01 	 1.3008989228296658e-06 	 4.4220594402000002e-01 	 3.3551074803718224e-06
24 	 1.6084259367320502e-11 	 2.6676115381000000e+04 	 4.6665079226078609e+19 	 9.3035848395999994e+02 	 5.2431171074000005e-01 	 1.3678105928147948e-06 	 4.4220503830000002e-01 	 3.4033434414894686e-06
25 	 1.6405944554457988e-11 	 2.7209638745000000e+04 	 4.8308762689101742e+19 	 9.3035854711000002e+02 	 5.2448633418000001e-01 	 1.4356957041894912e-06 	 4.4220412008999999e-01 	 3.4522179925208310e-06
26 	 1.6734063445849109e-11 	 2.7753832613999999e+04 	 5.0009383017193955e+19 	 9.3035861117000002e+02 	 5.2466321844999997e-01 	 1.5045429805411149e-06 	 4.4220318931000002e-01 	 3.5017390110177581e-06
27 	 1.7068744714334408e-11 	 2.8308910398000000e+04 	 5.1768884735285871e+19 	 9.3035867613999994e+02 	 5.2484239207000005e-01 	 1.5743896401551294e-06 	 4.4220224574000000e-01 	 3.5519143497640009e-06
28 	 1.7410119609304615e-11 	 2.8875089779000002e+04 	 5.3589277799599669e+19 	 9.3035874205000005e+02 	 5.2502388386999999e-01 	 1.6452240385608498e-06 	 4.4220128926000002e-01 	 3.6027518835119710e-06
29 	 1.7758322000853100e-11 	 2.9452592787000001e+04 	 5.5472639867933377e+19 	 9.3035880889999999e+02 	 5.2520772305999996e-01 	 1.7170843938354202e-06 	 4.4220031966000001e-01 	 3.6542598199806506e-06
30 	 1.8113488441192144e-11 	 3.0041645898999999e+04 	 5.7421118718947574e+19 	 9.3035887671000000e+02 	 5.2539393916999999e-01 	 1.7899586897134065e-06 	 4.4219933687000001e-01 	 3.7064462985759780e-06
31 	 1.8475758209894674e-11 	 3.0642480116999999e+04 	 5.9436934248477508e+19 	 9.3035894547999999e+02 	 5.2558256207999998e-01 	 1.8638861727840187e-06 	 4.4219834059000002e-01 	 3.7593194822108577e-06
32 	 1.8845273374224933e-11 	 3.1255331064999998e+04 	 6.1522381124339745e+19 	 9.3035901522999995e+02 	 5.2577362205000000e-01 	 1.9388544346983112e-06 	 4.4219733071000000e-01 	 3.8128876534617511e-06
33 	 1.9222178841490876e-11 	 3.1880439079000000e+04 	 6.3679831043799073e+19 	 9.3035908598000003e+02 	 5.2596714967000002e-01 	 2.0149037745548645e-06 	 4.4219630703000001e-01 	 3.8671592932896883e-06
34 	 1.9606622418297519e-11 	 3.2518049301999999e+04 	 6.5911735641519047e+19 	 9.3035915772999999e+02 	 5.2616317590999995e-01 	 2.0920213862744623e-06 	 4.4219526942999998e-01 	 3.9221428369360054e-06
35 	 1.9998754866986754e-11 	 3.3168411781000003e+04 	 6.8220628623661359e+19 	 9.3035923050999997e+02 	 5.2636173211000004e-01 	 2.1702486461991688e-06 	 4.4219421765000000e-01 	 3.9778468909465507e-06
36 	 2.0398729964425126e-11 	 3.3831781561000003e+04 	 7.0609129108424008e+19 	 9.3035930430999997e+02 	 5.2656284995000002e-01 	 2.2495723363804356e-06 	 4.4219315170000001e-01 	 4.0342801134403799e-06
37 	 2.0806704563727760e-11 	 3.4508418790999996e+04 	 7.3079943769753706e+19 	 9.3035937916000000e+02 	 5.2676656151000001e-01 	 2.3300349382505748e-06 	 4.4219207114999998e-01 	 4.0914511126818152e-06
38 	 2.1222838655001865e-11 	 3.5198588820999998e+04 	 7.5635870275616915e+19 	 9.3035945507999998e+02 	 5.2697289924000001e-01 	 2.4116228029470775e-06 	 4.4219097586000000e-01 	 4.1493689630764377e-06
39 	 2.1647295427521391e-11 	 3.5902562309000001e+04 	 7.8279800199154794e+19 	 9.3035953205999999e+02 	 5.2718189596999998e-01 	 2.4943795531756870e-06 	 4.4218986578000002e-01 	 4.2080425220542754e-06
40 	 2.2080241336656897e-11 	 3.6620615328000000e+04 	 8.1014721852933669e+19 	 9.3035961013999997e+02 	 5.2739358491999999e-01 	 2.5782910990565991e-06 	 4.4218874059000002e-01 	 4.2674807411544231e-06
41 	 2.2521846162872957e-11 	 3.7353029468000001e+04 	 8.3843723744839975e+19 	 9.3035968932000003e+02 	 5.2760799968000005e-01 	 2.6634022198065502e-06 	 4.4218760014000003e-01 	 4.3276927290760342e-06
42 	 2.2972283086663909e-11 	 3.8100091955999997e+04 	 8.6769997713540088e+19 	 9.3035976960999994e+02 	 5.2782517425999997e-01 	 2.7496983738820032e-06 	 4.4218644414000002e-01 	 4.3886878396051987e-06
43 	 2.3431728747980530e-11 	 3.8862095759000003e+04 	 8.9796842730445259e+19 	 9.3035985102999996e+02 	 5.2804514304000005e-01 	 2.8372255339417036e-06 	 4.4218527262000001e-01 	 4.4504753054420450e-06
44 	 2.3900363323153712e-11 	 3.9639339706999999e+04 	 9.2927667727553561e+19 	 9.3035993359999998e+02 	 5.2826794082999995e-01 	 2.9259686905117055e-06 	 4.4218408527000003e-01 	 4.5130643888179154e-06
45 	 2.4378370589562060e-11 	 4.0432128604999998e+04 	 9.6165995873659191e+19 	 9.3036001733000001e+02 	 5.2849360281000002e-01 	 3.0159750273920536e-06 	 4.4218288181999998e-01 	 4.5764646808408216e-06
46 	 2.4865938001541123e-11 	 4.1240773353999997e+04 	 9.9515467982182269e+19 	 9.3036010223999995e+02 	 5.2872216458999999e-01 	 3.1072290600597121e-06 	 4.4218166207999998e-01 	 4.6406858018414052e-06
47 	 2.5363256761484984e-11 	 4.2065591074000004e+04 	 1.0297984667682801e+20 	 9.3036018834000004e+02 	 5.2895366218999995e-01 	 3.1997792189512354e-06 	 4.4218042592000001e-01 	 4.7057373171917338e-06
48 	 2.5870521896562959e-11 	 4.2906905226000003e+04 	 1.0656301986670794e+20 	 9.3036027564000005e+02 	 5.2918813204000004e-01 	 3.2936095217837814e-06 	 4.4217917305999999e-01 	 4.7716290827113370e-06
49 	 2.6387932334432922e-11 	 4.3765045743000002e+04 	 1.1026900572750689e+20 	 9.3036036417000003e+02 	 5.2942561099999996e-01 	 3.3887696771918742e-06 	 4.4217790331000001e-01 	 4.8383709585431362e-06
50 	 2.6915690981382316e-11 	 4.4640349154000003e+04 	 1.1410195594589089e+20 	 9.3036045392999995e+02 	 5.2966613634000004e-01 	 3.4852431944335253e-06 	 4.4217661644000000e-01 	 4.9059728403462661e-06
51 	 2.7454004800829870e-11 	 4.5533158719999999e+04 	 1.1806616108199213e+20 	 9.3036054494999996e+02 	 5.2990974577000005e-01 	 3.5830810842320794e-06 	 4.4217531232000001e-01 	 4.9744448260966489e-06
52 	 2.8003084897126479e-11 	 4.6443824567000003e+04 	 1.2216605429607208e+20 	 9.3036063722999995e+02 	 5.3015647743000005e-01 	 3.6822663341596839e-06 	 4.4217399060000001e-01 	 5.0437970497291815e-06
53 	 2.8563146594418117e-11 	 4.7372703823000003e+04 	 1.2640621678791087e+20 	 9.3036073080000006e+02 	 5.3040636990000001e-01 	 3.7828512895269765e-06 	 4.4217265116999999e-01 	 5.1140397988507711e-06
54 	 2.9134409526725414e-11 	 4.8320160760999999e+04 	 1.3079138197047766e+20 	 9.3036082567999995e+02 	 5.3065946219000004e-01 	 3.8848184005158891e-06 	 4.4217129371000002e-01 	 5.1851833684332427e-06
55 	 2.9717097717151328e-11 	 4.9286566937000003e+04 	 1.3532644100545079e+20 	 9.3036092186999997e+02 	 5.3091579376999998e-01 	 3.9882213770202629e-06 	 4.4216991811000000e-01 	 5.2572382546009516e-06
56 	 3.0311439671844546e-11 	 5.0272301338999998e+04 	 1.4001644757610196e+20 	 9.3036101940000003e+02 	 5.3117540455000001e-01 	 4.0930421159279000e-06 	 4.4216852404000001e-01 	 5.3302149168668193e-06
57 	 3.0917668464960884e-11 	 5.1277750534999999e+04 	 1.4486662339077312e+20 	 9.3036111829000004e+02 	 5.3143833489000003e-01 	 4.1993357223870030e-06 	 4.4216711128000002e-01 	 5.4041241102190411e-06
58 	 3.1536021834719807e-11 	 5.2303308825000000e+04 	 1.4988236384977496e+20 	 9.3036121853999998e+02 	 5.3170462560999998e-01 	 4.3070835262385596e-06 	 4.4216567962999997e-01 	 5.4789765172255520e-06
59 	 3.2166742271086070e-11 	 5.3349378393999999e+04 	 1.5506924322842860e+20 	 9.3036132018000001e+02 	 5.3197431799999995e-01 	 4.4163420610801831e-06 	 4.4216422883000001e-01 	 5.5547829509911445e-06
60 	 3.2810077116350424e-11 	 5.4416369470999998e+04 	 1.6043302109378278e+20 	 9.3036142323000001e+02 	 5.3224745382000005e-01 	 4.5270920670022340e-06 	 4.4216275866999999e-01 	 5.6315543499836423e-06
61 	 3.3466278658526259e-11 	 5.5504700492000004e+04 	 1.6597964782891909e+20 	 9.3036152770000001e+02 	 5.3252407527000001e-01 	 4.6393915416821484e-06 	 4.4216126879000001e-01 	 5.7093018687064459e-06
62 	 3.4135604232254486e-11 	 5.6614798259000003e+04 	 1.7171527162965718e+20 	 9.3036163361000001e+02 	 5.3280422507000003e-01 	 4.7532206235707626e-06 	 4.4215975921000000e-01 	 5.7880366103062371e-06
63 	 3.4818316316084937e-11 	 5.7747098109999999e+04 	 1.7764624384460961e+20 	 9.3036174098000004e+02 	 5.3308794638000001e-01 	 4.8686388060640906e-06 	 4.4215822943999999e-01 	 5.8677696699022645e-06
64 	 3.5514682642771736e-11 	 5.8902044092999997e+04 	 1.8377912655668144e+20 	 9.3036184982999998e+02 	 5.3337528287000002e-01 	 4.9856255979734888e-06 	 4.4215667929000002e-01 	 5.9485125743286488e-06
65 	 3.6224976295593033e-11 	 6.0080089135000002e+04 	 1.9012069913597306e+20 	 9.3036196016999997e+02 	 5.3366627867000005e-01 	 5.1042420320410821e-06 	 4.4215510852000001e-01 	 6.0302766224755173e-06
66 	 3.6949475822030812e-11 	 6.1281695221000002e+04 	 1.9667796492085631e+20 	 9.3036207204000004e+02 	 5.3396097843000001e-01 	 5.2244669680802828e-06 	 4.4215351685999998e-01 	 6.1130734690926131e-06
67 	 3.7688465338148966e-11 	 6.2507333576999998e+04 	 2.0345815948520627e+20 	 9.3036218542999995e+02 	 5.3425942728999998e-01 	 5.3463630103377464e-06 	 4.4215190406999999e-01 	 6.1969147890289983e-06
68 	 3.8442234645079575e-11 	 6.3757484853000002e+04 	 2.1046875699904240e+20 	 9.3036230038999997e+02 	 5.3456167086999995e-01 	 5.4699083574948109e-06 	 4.4215026988000000e-01 	 6.2818122174236650e-06
69 	 3.9211079337212780e-11 	 6.5032639313000000e+04 	 2.1771747889630387e+20 	 9.3036241690999998e+02 	 5.3486775532999997e-01 	 5.5951672119966579e-06 	 4.4214861397999999e-01 	 6.3677777316369604e-06
70 	 3.9995300924530961e-11 	 6.6333297026999993e+04 	 2.2521230151723250e+20 	 9.3036253503000000e+02 	 5.3517772731000002e-01 	 5.7221170958078836e-06 	 4.4214693622000001e-01 	 6.4548232340701765e-06
71 	 4.0795206942773974e-11 	 6.7659968064999994e+04 	 2.3296146435958227e+20 	 9.3036265476999995e+02 	 5.3549163396999999e-01 	 5.8508238479571605e-06 	 4.4214523623000002e-01 	 6.5429607700552084e-06
72 	 4.1611111082252611e-11 	 6.9013172699000002e+04 	 2.4097347873037291e+20 	 9.3036277613000004e+02 	 5.3580952300999996e-01 	 5.9812642878558636e-06 	 4.4214351372999999e-01 	 6.6322025088235803e-06
73 	 4.2443333302974412e-11 	 7.0393441605999993e+04 	 2.4925713649377480e+20 	 9.3036289914999998e+02 	 5.3613144262000001e-01 	 6.1135059304193102e-06 	 4.4214176846999997e-01 	 6.7225607694803652e-06
74 	 4.3292199969966878e-11 	 7.1801316080000004e+04 	 2.5782151936373293e+20 	 9.3036302384999999e+02 	 5.3645744154999997e-01 	 6.2475248747425329e-06 	 4.4214000020999999e-01 	 6.8140477764731052e-06
75 	 4.4158043968508822e-11 	 7.3237348236000005e+04 	 2.6667600753969935e+20 	 9.3036315023999998e+02 	 5.3678756905000002e-01 	 6.3833903428621233e-06 	 4.4213820849000002e-01 	 6.9066761974104614e-06
76 	 4.5041204848407338e-11 	 7.4702101236000002e+04 	 2.7583029103402179e+20 	 9.3036327835999998e+02 	 5.3712187492999997e-01 	 6.5210776976610415e-06 	 4.4213639326999998e-01 	 7.0004587955236068e-06
77 	 4.5942028944727953e-11 	 7.6196149502999993e+04 	 2.8529437797121868e+20 	 9.3036340819999998e+02 	 5.3746040953999996e-01 	 6.6606579197764302e-06 	 4.4213455424999998e-01 	 7.0954077412197067e-06
78 	 4.6860869524427375e-11 	 7.7720078949999996e+04 	 2.9507860472975720e+20 	 9.3036353981000002e+02 	 5.3780322375000000e-01 	 6.8021055856847930e-06 	 4.4213269088000001e-01 	 7.1915360888142698e-06
79 	 4.7798086914355458e-11 	 7.9274487206999998e+04 	 3.0519364882355349e+20 	 9.3036367319999999e+02 	 5.3815036902000002e-01 	 6.9454934769774162e-06 	 4.4213080314999997e-01 	 7.2888568353899681e-06
80 	 4.8754048653295296e-11 	 8.0859983858000007e+04 	 3.1565053710511682e+20 	 9.3036380840000004e+02 	 5.3850189732999998e-01 	 7.0907953853053736e-06 	 4.4212889053999999e-01 	 7.3873827746864475e-06
81 	 4.9729129625390109e-11 	 8.2477190677999999e+04 	 3.2646065906361598e+20 	 9.3036394542000005e+02 	 5.3885786122000001e-01 	 7.2380859141575233e-06 	 4.4212695286999998e-01 	 7.4871271256485002e-06
82 	 5.0723712218835902e-11 	 8.4126741880000001e+04 	 3.3763577733515772e+20 	 9.3036408429000005e+02 	 5.3921831381999996e-01 	 7.3873380479980285e-06 	 4.4212498979999998e-01 	 7.5881030842717866e-06
83 	 5.1738186462280716e-11 	 8.5809284358000004e+04 	 3.4918804055224346e+20 	 9.3036422503999995e+02 	 5.3958330880000005e-01 	 7.5386282596350945e-06 	 4.4212300096000001e-01 	 7.6903240038367972e-06
84 	 5.2772950192623481e-11 	 8.7525477948000000e+04 	 3.6112999507170230e+20 	 9.3036436766999998e+02 	 5.3995290042999999e-01 	 7.6919286995040414e-06 	 4.4212098619000001e-01 	 7.7938032637487139e-06
85 	 5.3828409195548368e-11 	 8.9275995679000000e+04 	 3.7347459824071344e+20 	 9.3036451222999995e+02 	 5.4032714352000000e-01 	 7.8473177495339341e-06 	 4.4211894503999999e-01 	 7.8985543938380587e-06
86 	 5.4904977380062533e-11 	 9.1061524044000005e+04 	 3.8623523124626280e+20 	 9.3036465872999997e+02 	 5.4070609348999998e-01 	 8.0047667002573387e-06 	 4.4211687724999998e-01 	 8.0045909527777607e-06
87 	 5.6003076927340035e-11 	 9.2882763265999994e+04 	 3.9942571287784043e+20 	 9.3036480718999996e+02 	 5.4108980634000003e-01 	 8.1643558831851786e-06 	 4.4211478246000002e-01 	 8.1119267782217292e-06
88 	 5.7123138466619544e-11 	 9.4740427570000000e+04 	 4.1306031394703022e+20 	 9.3036495763999994e+02 	 5.4147833864999995e-01 	 8.3260557075772463e-06 	 4.4211266043000003e-01 	 8.2205755405037096e-06
89 	 5.8265601234720431e-11 	 9.6635245467999994e+04 	 4.2715377048944489e+20 	 9.3036511011000005e+02 	 5.4187174760000001e-01 	 8.4899484922864174e-06 	 4.4211051063000001e-01 	 8.3305513349887274e-06
90 	 5.9430913260586358e-11 	 9.8567960044000007e+04 	 4.4172130114834334e+20 	 9.3036526461000005e+02 	 5.4227009098000001e-01 	 8.6560037421583300e-06 	 4.4210833297000002e-01 	 8.4418682784831526e-06
91 	 6.0619531524568141e-11 	 1.0053932924000001e+05 	 4.5677861973569470e+20 	 9.3036542118000000e+02 	 5.4267342716000000e-01 	 8.8243058152150371e-06 	 4.4210612705000002e-01 	 8.5545401831157942e-06
92 	 6.1831922155284955e-11 	 1.0255012616000000e+05 	 4.7234195261579500e+20 	 9.3036557984000001e+02 	 5.4308181513999998e-01 	 8.9948232653426950e-06 	 4.4210389235999997e-01 	 8.6685816186704134e-06
93 	 6.3068560596456382e-11 	 1.0460113937000000e+05 	 4.8842805589662289e+20 	 9.3036574060999999e+02 	 5.4349531451999999e-01 	 9.1676425436203754e-06 	 4.4210162883999998e-01 	 8.7840067414707876e-06
94 	 6.4329931809506158e-11 	 1.0669317320999999e+05 	 5.0505422960910211e+20 	 9.3036590351999996e+02 	 5.4391398551000003e-01 	 9.3427312308901422e-06 	 4.4209933580999999e-01 	 8.9008301103766228e-06
95 	 6.5616530449090018e-11 	 1.0882704811000000e+05 	 5.2223833908013839e+20 	 9.3036606859999995e+02 	 5.4433788897000002e-01 	 9.5201779073125242e-06 	 4.4209701323000000e-01 	 9.0190663437751217e-06
